"sep=	"
Shimmer_B640_Timestamp_FormattedUnix_CAL	Shimmer_B640_Accel_LN_X_CAL	Shimmer_B640_Accel_LN_Y_CAL	Shimmer_B640_Accel_LN_Z_CAL	Shimmer_B640_GSR_CAL	Shimmer_B640_PPGToHR_PPG_A13_CAL	Shimmer_B640_PPG_A13_CAL	
yyyy/mm/dd hh:mm:ss.000	m/(s^2)	m/(s^2)	m/(s^2)	kOhms	BPM	mV	
2015/06/23 15:51:15.282	6.1566265060241	-0.228915662650602	7.73493975903615	1257.4586157795	-1.0	1180.95238095238	
2015/06/23 15:51:15.290	6.13253012048193	-0.240963855421687	7.74698795180723	1257.4586157795	-1.0	1175.82417582418	
2015/06/23 15:51:15.298	6.12048192771084	-0.216867469879518	7.74698795180723	1258.17974104145	-1.0	1171.42857142857	
2015/06/23 15:51:15.306	6.14457831325301	-0.228915662650602	7.73493975903615	1257.4586157795	-1.0	1168.49816849817	
2015/06/23 15:51:15.314	6.16867469879518	-0.240963855421687	7.73493975903615	1258.17974104145	-1.0	1169.23076923077	
2015/06/23 15:51:15.321	6.16867469879518	-0.204819277108434	7.73493975903615	1257.4586157795	-1.0	1171.42857142857	
2015/06/23 15:51:15.329	6.1566265060241	-0.228915662650602	7.73493975903615	1258.17974104145	-1.0	1172.16117216117	
2015/06/23 15:51:15.337	6.1566265060241	-0.228915662650602	7.73493975903615	1258.17974104145	-1.0	1172.16117216117	
2015/06/23 15:51:15.345	6.13253012048193	-0.253012048192771	7.73493975903615	1258.17974104145	-1.0	1170.69597069597	
2015/06/23 15:51:15.353	6.14457831325301	-0.228915662650602	7.73493975903615	1258.17974104145	-1.0	1167.03296703297	
2015/06/23 15:51:15.361	6.12048192771084	-0.228915662650602	7.73493975903615	1258.17974104145	-1.0	1167.03296703297	
2015/06/23 15:51:15.368	6.14457831325301	-0.228915662650602	7.73493975903615	1258.17974104145	-1.0	1164.83516483516	
2015/06/23 15:51:15.376	6.14457831325301	-0.228915662650602	7.73493975903615	1258.90169387741	-1.0	1162.63736263736	
2015/06/23 15:51:15.384	6.1566265060241	-0.228915662650602	7.73493975903615	1258.17974104145	-1.0	1159.70695970696	
2015/06/23 15:51:15.392	6.16867469879518	-0.240963855421687	7.72289156626506	1257.4586157795	-1.0	1156.77655677656	
2015/06/23 15:51:15.400	6.18072289156627	-0.216867469879518	7.71084337349398	1258.17974104145	-1.0	1155.31135531136	
2015/06/23 15:51:15.407	6.14457831325301	-0.240963855421687	7.73493975903615	1258.90169387741	-1.0	1153.84615384615	
2015/06/23 15:51:15.415	6.13253012048193	-0.240963855421687	7.74698795180723	1258.90169387741	-1.0	1153.84615384615	
2015/06/23 15:51:15.423	6.13253012048193	-0.216867469879518	7.73493975903615	1258.90169387741	-1.0	1153.84615384615	
2015/06/23 15:51:15.431	6.14457831325301	-0.228915662650602	7.74698795180723	1258.17974104145	-1.0	1154.57875457875	
2015/06/23 15:51:15.439	6.14457831325301	-0.240963855421687	7.73493975903615	1258.17974104145	-1.0	1155.31135531136	
2015/06/23 15:51:15.446	6.16867469879518	-0.228915662650602	7.69879518072289	1258.17974104145	-1.0	1156.04395604396	
2015/06/23 15:51:15.454	6.18072289156627	-0.204819277108434	7.73493975903615	1258.90169387741	-1.0	1158.24175824176	
2015/06/23 15:51:15.462	6.1566265060241	-0.204819277108434	7.73493975903615	1258.17974104145	-1.0	1158.97435897436	
2015/06/23 15:51:15.470	6.12048192771084	-0.204819277108434	7.72289156626506	1258.17974104145	-1.0	1158.97435897436	
2015/06/23 15:51:15.478	6.14457831325301	-0.228915662650602	7.74698795180723	1258.90169387741	-1.0	1159.70695970696	
2015/06/23 15:51:15.486	6.13253012048193	-0.253012048192771	7.74698795180723	1258.90169387741	-1.0	1158.97435897436	
2015/06/23 15:51:15.493	6.1566265060241	-0.240963855421687	7.74698795180723	1258.90169387741	-1.0	1159.70695970696	
2015/06/23 15:51:15.501	6.1566265060241	-0.253012048192771	7.74698795180723	1258.90169387741	-1.0	1159.70695970696	
2015/06/23 15:51:15.509	6.1566265060241	-0.204819277108434	7.74698795180723	1258.17974104145	-1.0	1158.24175824176	
2015/06/23 15:51:15.517	6.1566265060241	-0.192771084337349	7.72289156626506	1258.90169387741	-1.0	1156.77655677656	
2015/06/23 15:51:15.525	6.1566265060241	-0.204819277108434	7.71084337349398	1258.17974104145	-1.0	1153.11355311355	
2015/06/23 15:51:15.532	6.14457831325301	-0.216867469879518	7.73493975903615	1258.90169387741	-1.0	1150.91575091575	
2015/06/23 15:51:15.540	6.14457831325301	-0.240963855421687	7.72289156626506	1258.90169387741	-1.0	1151.64835164835	
2015/06/23 15:51:15.548	6.14457831325301	-0.240963855421687	7.74698795180723	1258.90169387741	-1.0	1153.11355311355	
2015/06/23 15:51:15.556	6.14457831325301	-0.228915662650602	7.74698795180723	1258.90169387741	-1.0	1158.24175824176	
2015/06/23 15:51:15.564	6.1566265060241	-0.240963855421687	7.73493975903615	1258.90169387741	-1.0	1168.49816849817	
2015/06/23 15:51:15.571	6.18072289156627	-0.204819277108434	7.72289156626506	1258.90169387741	-1.0	1181.68498168498	
2015/06/23 15:51:15.579	6.18072289156627	-0.180722891566265	7.72289156626506	1258.90169387741	-1.0	1198.5347985348	
2015/06/23 15:51:15.587	6.19277108433735	-0.192771084337349	7.72289156626506	1258.90169387741	-1.0	1221.24542124542	
2015/06/23 15:51:15.595	6.19277108433735	-0.228915662650602	7.71084337349398	1259.6244757128	-1.0	1250.54945054945	
2015/06/23 15:51:15.603	6.1566265060241	-0.216867469879518	7.66265060240964	1259.6244757128	-1.0	1287.91208791209	
2015/06/23 15:51:15.611	6.10843373493976	-0.216867469879518	7.74698795180723	1259.6244757128	-1.0	1334.06593406593	
2015/06/23 15:51:15.618	6.12048192771084	-0.253012048192771	7.83132530120482	1258.90169387741	-1.0	1389.74358974359	
2015/06/23 15:51:15.626	6.19277108433735	-0.265060240963855	7.7710843373494	1258.90169387741	-1.0	1451.28205128205	
2015/06/23 15:51:15.634	6.14457831325301	-0.228915662650602	7.71084337349398	1258.90169387741	-1.0	1517.21611721612	
2015/06/23 15:51:15.642	6.10843373493976	-0.192771084337349	7.75903614457831	1259.6244757128	-1.0	1583.88278388278	
2015/06/23 15:51:15.650	6.10843373493976	-0.192771084337349	7.68674698795181	1258.90169387741	-1.0	1652.01465201465	
2015/06/23 15:51:15.657	6.18072289156627	-0.216867469879518	7.69879518072289	1259.6244757128	-1.0	1718.68131868132	
2015/06/23 15:51:15.665	6.20481927710843	-0.228915662650602	7.69879518072289	1258.90169387741	-1.0	1781.68498168498	
2015/06/23 15:51:15.673	6.1566265060241	-0.228915662650602	7.73493975903615	1259.6244757128	-1.0	1834.43223443223	
2015/06/23 15:51:15.681	6.12048192771084	-0.228915662650602	7.69879518072289	1259.6244757128	-1.0	1879.85347985348	
2015/06/23 15:51:15.689	6.13253012048193	-0.240963855421687	7.79518072289157	1259.6244757128	-1.0	1910.62271062271	
2015/06/23 15:51:15.696	6.19277108433735	-0.204819277108434	7.73493975903615	1259.6244757128	-1.0	1933.33333333333	
2015/06/23 15:51:15.704	6.18072289156627	-0.192771084337349	7.72289156626506	1259.6244757128	-1.0	1945.05494505495	
2015/06/23 15:51:15.712	6.1566265060241	-0.168674698795181	7.73493975903615	1258.90169387741	-1.0	1950.18315018315	
2015/06/23 15:51:15.720	6.16867469879518	-0.204819277108434	7.69879518072289	1259.6244757128	-1.0	1949.45054945055	
2015/06/23 15:51:15.728	6.1566265060241	-0.253012048192771	7.71084337349398	1258.90169387741	-1.0	1941.39194139194	
2015/06/23 15:51:15.736	6.16867469879518	-0.253012048192771	7.72289156626506	1258.90169387741	-1.0	1931.13553113553	
2015/06/23 15:51:15.743	6.12048192771084	-0.253012048192771	7.72289156626506	1258.90169387741	-1.0	1917.21611721612	
2015/06/23 15:51:15.751	6.08433734939759	-0.253012048192771	7.73493975903615	1259.6244757128	-1.0	1898.9010989011	
2015/06/23 15:51:15.759	6.13253012048193	-0.228915662650602	7.73493975903615	1259.6244757128	-1.0	1878.38827838828	
2015/06/23 15:51:15.767	6.19277108433735	-0.216867469879518	7.73493975903615	1259.6244757128	-1.0	1856.41025641026	
2015/06/23 15:51:15.775	6.21686746987952	-0.216867469879518	7.75903614457831	1258.90169387741	-1.0	1830.76923076923	
2015/06/23 15:51:15.782	6.18072289156627	-0.216867469879518	7.72289156626506	1259.6244757128	-1.0	1801.4652014652	
2015/06/23 15:51:15.790	6.13253012048193	-0.216867469879518	7.74698795180723	1259.6244757128	-1.0	1771.42857142857	
2015/06/23 15:51:15.798	6.09638554216868	-0.216867469879518	7.73493975903615	1259.6244757128	-1.0	1742.12454212454	
2015/06/23 15:51:15.806	6.09638554216868	-0.228915662650602	7.73493975903615	1259.6244757128	-1.0	1714.28571428571	
2015/06/23 15:51:15.814	6.12048192771084	-0.253012048192771	7.73493975903615	1259.6244757128	-1.0	1687.91208791209	
2015/06/23 15:51:15.821	6.1566265060241	-0.216867469879518	7.75903614457831	1259.6244757128	-1.0	1665.93406593407	
2015/06/23 15:51:15.829	6.20481927710843	-0.216867469879518	7.72289156626506	1258.90169387741	-1.0	1649.08424908425	
2015/06/23 15:51:15.837	6.20481927710843	-0.204819277108434	7.69879518072289	1259.6244757128	-1.0	1632.96703296703	
2015/06/23 15:51:15.845	6.19277108433735	-0.204819277108434	7.72289156626506	1259.6244757128	-1.0	1620.51282051282	
2015/06/23 15:51:15.853	6.21686746987952	-0.192771084337349	7.71084337349398	1259.6244757128	-1.0	1611.72161172161	
2015/06/23 15:51:15.861	6.19277108433735	-0.192771084337349	7.72289156626506	1259.6244757128	-1.0	1606.59340659341	
2015/06/23 15:51:15.868	6.16867469879518	-0.216867469879518	7.72289156626506	1259.6244757128	-1.0	1602.9304029304	
2015/06/23 15:51:15.876	6.12048192771084	-0.240963855421687	7.71084337349398	1260.34808797633	-1.0	1599.2673992674	
2015/06/23 15:51:15.884	6.10843373493976	-0.253012048192771	7.73493975903615	1260.34808797633	-1.0	1594.13919413919	
2015/06/23 15:51:15.892	6.13253012048193	-0.240963855421687	7.75903614457831	1260.34808797633	-1.0	1591.94139194139	
2015/06/23 15:51:15.900	6.14457831325301	-0.253012048192771	7.74698795180723	1259.6244757128	-1.0	1587.54578754579	
2015/06/23 15:51:15.907	6.13253012048193	-0.240963855421687	7.74698795180723	1259.6244757128	-1.0	1583.88278388278	
2015/06/23 15:51:15.915	6.12048192771084	-0.228915662650602	7.72289156626506	1259.6244757128	-1.0	1575.82417582418	
2015/06/23 15:51:15.923	6.1566265060241	-0.216867469879518	7.72289156626506	1260.34808797633	-1.0	1563.36996336996	
2015/06/23 15:51:15.931	6.18072289156627	-0.228915662650602	7.72289156626506	1260.34808797633	-1.0	1550.18315018315	
2015/06/23 15:51:15.939	6.16867469879518	-0.228915662650602	7.73493975903615	1260.34808797633	-1.0	1535.53113553114	
2015/06/23 15:51:15.946	6.14457831325301	-0.180722891566265	7.73493975903615	1259.6244757128	-1.0	1520.14652014652	
2015/06/23 15:51:15.954	6.1566265060241	-0.228915662650602	7.74698795180723	1260.34808797633	-1.0	1503.2967032967	
2015/06/23 15:51:15.962	6.1566265060241	-0.204819277108434	7.74698795180723	1259.6244757128	-1.0	1484.98168498168	
2015/06/23 15:51:15.970	6.1566265060241	-0.204819277108434	7.73493975903615	1259.6244757128	-1.0	1464.46886446886	
2015/06/23 15:51:15.978	6.18072289156627	-0.216867469879518	7.72289156626506	1260.34808797633	-1.0	1444.68864468864	
2015/06/23 15:51:15.986	6.19277108433735	-0.228915662650602	7.72289156626506	1259.6244757128	-1.0	1421.97802197802	
2015/06/23 15:51:15.993	6.16867469879518	-0.216867469879518	7.71084337349398	1259.6244757128	-1.0	1400.0	
2015/06/23 15:51:16.001	6.1566265060241	-0.228915662650602	7.74698795180723	1260.34808797633	-1.0	1381.68498168498	
2015/06/23 15:51:16.009	6.1566265060241	-0.216867469879518	7.72289156626506	1259.6244757128	-1.0	1364.10256410256	
2015/06/23 15:51:16.017	6.14457831325301	-0.216867469879518	7.73493975903615	1259.6244757128	-1.0	1345.78754578755	
2015/06/23 15:51:16.025	6.14457831325301	-0.228915662650602	7.73493975903615	1259.6244757128	-1.0	1327.47252747253	
2015/06/23 15:51:16.032	6.13253012048193	-0.240963855421687	7.74698795180723	1259.6244757128	-1.0	1310.62271062271	
2015/06/23 15:51:16.040	6.13253012048193	-0.228915662650602	7.73493975903615	1260.34808797633	-1.0	1295.2380952381	
2015/06/23 15:51:16.048	6.1566265060241	-0.228915662650602	7.72289156626506	1260.34808797633	-1.0	1283.51648351648	
2015/06/23 15:51:16.056	6.1566265060241	-0.216867469879518	7.71084337349398	1259.6244757128	-1.0	1274.72527472527	
2015/06/23 15:51:16.064	6.14457831325301	-0.216867469879518	7.73493975903615	1260.34808797633	-1.0	1267.39926739927	
2015/06/23 15:51:16.071	6.18072289156627	-0.204819277108434	7.71084337349398	1260.34808797633	-1.0	1261.53846153846	
2015/06/23 15:51:16.079	6.16867469879518	-0.228915662650602	7.74698795180723	1260.34808797633	-1.0	1256.41025641026	
2015/06/23 15:51:16.087	6.18072289156627	-0.240963855421687	7.74698795180723	1259.6244757128	-1.0	1251.28205128205	
2015/06/23 15:51:16.095	6.1566265060241	-0.228915662650602	7.72289156626506	1260.34808797633	-1.0	1246.15384615385	
2015/06/23 15:51:16.103	6.1566265060241	-0.216867469879518	7.74698795180723	1260.34808797633	-1.0	1241.75824175824	
2015/06/23 15:51:16.111	6.1566265060241	-0.204819277108434	7.72289156626506	1261.07253209997	-1.0	1238.82783882784	
2015/06/23 15:51:16.118	6.1566265060241	-0.216867469879518	7.72289156626506	1260.34808797633	-1.0	1235.89743589744	
2015/06/23 15:51:16.126	6.18072289156627	-0.216867469879518	7.71084337349398	1260.34808797633	-1.0	1235.16483516484	
2015/06/23 15:51:16.134	6.16867469879518	-0.228915662650602	7.71084337349398	1260.34808797633	-1.0	1238.09523809524	
2015/06/23 15:51:16.142	6.1566265060241	-0.253012048192771	7.73493975903615	1260.34808797633	-1.0	1241.75824175824	
2015/06/23 15:51:16.150	6.1566265060241	-0.228915662650602	7.73493975903615	1260.34808797633	-1.0	1245.42124542125	
2015/06/23 15:51:16.157	6.14457831325301	-0.240963855421687	7.74698795180723	1261.07253209997	-1.0	1250.54945054945	
2015/06/23 15:51:16.165	6.13253012048193	-0.228915662650602	7.74698795180723	1260.34808797633	-1.0	1253.47985347985	
2015/06/23 15:51:16.173	6.1566265060241	-0.216867469879518	7.73493975903615	1260.34808797633	-1.0	1252.74725274725	
2015/06/23 15:51:16.181	6.16867469879518	-0.204819277108434	7.73493975903615	1260.34808797633	-1.0	1250.54945054945	
2015/06/23 15:51:16.189	6.14457831325301	-0.228915662650602	7.73493975903615	1261.07253209997	-1.0	1246.15384615385	
2015/06/23 15:51:16.196	6.1566265060241	-0.240963855421687	7.73493975903615	1261.07253209997	-1.0	1241.75824175824	
2015/06/23 15:51:16.204	6.1566265060241	-0.228915662650602	7.71084337349398	1261.07253209997	-1.0	1238.09523809524	
2015/06/23 15:51:16.212	6.16867469879518	-0.216867469879518	7.71084337349398	1260.34808797633	-1.0	1233.69963369963	
2015/06/23 15:51:16.220	6.16867469879518	-0.240963855421687	7.73493975903615	1261.07253209997	-1.0	1232.23443223443	
2015/06/23 15:51:16.228	6.16867469879518	-0.216867469879518	7.73493975903615	1261.07253209997	-1.0	1227.83882783883	
2015/06/23 15:51:16.236	6.18072289156627	-0.204819277108434	7.73493975903615	1260.34808797633	-1.0	1225.64102564103	
2015/06/23 15:51:16.243	6.13253012048193	-0.216867469879518	7.73493975903615	1261.07253209997	-1.0	1224.17582417582	
2015/06/23 15:51:16.251	6.12048192771084	-0.216867469879518	7.73493975903615	1261.07253209997	-1.0	1221.24542124542	
2015/06/23 15:51:16.259	6.1566265060241	-0.216867469879518	7.72289156626506	1261.07253209997	-1.0	1216.11721611722	
2015/06/23 15:51:16.267	6.19277108433735	-0.216867469879518	7.73493975903615	1261.07253209997	-1.0	1210.98901098901	
2015/06/23 15:51:16.275	6.16867469879518	-0.216867469879518	7.71084337349398	1261.07253209997	-1.0	1204.3956043956	
2015/06/23 15:51:16.282	6.14457831325301	-0.228915662650602	7.69879518072289	1261.07253209997	-1.0	1194.87179487179	
2015/06/23 15:51:16.290	6.13253012048193	-0.228915662650602	7.75903614457831	1261.07253209997	-1.0	1186.81318681319	
2015/06/23 15:51:16.298	6.16867469879518	-0.228915662650602	7.71084337349398	1261.797809519	-1.0	1178.02197802198	
2015/06/23 15:51:16.306	6.1566265060241	-0.228915662650602	7.72289156626506	1261.07253209997	-1.0	1172.16117216117	
2015/06/23 15:51:16.314	6.13253012048193	-0.228915662650602	7.74698795180723	1261.07253209997	-1.0	1164.10256410256	
2015/06/23 15:51:16.321	6.13253012048193	-0.216867469879518	7.72289156626506	1261.797809519	-1.0	1156.77655677656	
2015/06/23 15:51:16.329	6.13253012048193	-0.228915662650602	7.74698795180723	1260.34808797633	-1.0	1150.91575091575	
2015/06/23 15:51:16.337	6.16867469879518	-0.216867469879518	7.74698795180723	1261.07253209997	-1.0	1144.32234432234	
2015/06/23 15:51:16.345	6.14457831325301	-0.204819277108434	7.73493975903615	1261.07253209997	-1.0	1141.39194139194	
2015/06/23 15:51:16.353	6.14457831325301	-0.216867469879518	7.73493975903615	1261.797809519	-1.0	1142.12454212454	
2015/06/23 15:51:16.361	6.16867469879518	-0.228915662650602	7.73493975903615	1261.07253209997	-1.0	1145.05494505495	
2015/06/23 15:51:16.368	6.16867469879518	-0.240963855421687	7.72289156626506	1260.34808797633	-1.0	1147.25274725275	
2015/06/23 15:51:16.376	6.18072289156627	-0.240963855421687	7.72289156626506	1261.07253209997	-1.0	1149.45054945055	
2015/06/23 15:51:16.384	6.16867469879518	-0.228915662650602	7.71084337349398	1261.797809519	-1.0	1150.91575091575	
2015/06/23 15:51:16.392	6.14457831325301	-0.228915662650602	7.72289156626506	1261.07253209997	-1.0	1150.91575091575	
2015/06/23 15:51:16.400	6.14457831325301	-0.240963855421687	7.72289156626506	1261.07253209997	-1.0	1153.84615384615	
2015/06/23 15:51:16.407	6.16867469879518	-0.228915662650602	7.74698795180723	1261.07253209997	-1.0	1154.57875457875	
2015/06/23 15:51:16.415	6.16867469879518	-0.228915662650602	7.73493975903615	1261.07253209997	-1.0	1157.50915750916	
2015/06/23 15:51:16.423	6.16867469879518	-0.216867469879518	7.72289156626506	1261.797809519	-1.0	1163.36996336996	
2015/06/23 15:51:16.431	6.16867469879518	-0.228915662650602	7.71084337349398	1261.07253209997	-1.0	1172.16117216117	
2015/06/23 15:51:16.439	6.1566265060241	-0.228915662650602	7.69879518072289	1261.797809519	-1.0	1180.95238095238	
2015/06/23 15:51:16.446	6.16867469879518	-0.228915662650602	7.73493975903615	1261.07253209997	-1.0	1189.74358974359	
2015/06/23 15:51:16.454	6.16867469879518	-0.253012048192771	7.72289156626506	1261.07253209997	-1.0	1194.87179487179	
2015/06/23 15:51:16.462	6.14457831325301	-0.216867469879518	7.73493975903615	1261.07253209997	-1.0	1197.0695970696	
2015/06/23 15:51:16.470	6.13253012048193	-0.228915662650602	7.73493975903615	1261.07253209997	-1.0	1197.8021978022	
2015/06/23 15:51:16.478	6.1566265060241	-0.240963855421687	7.74698795180723	1261.797809519	-1.0	1197.8021978022	
2015/06/23 15:51:16.486	6.16867469879518	-0.228915662650602	7.73493975903615	1261.07253209997	-1.0	1196.336996337	
2015/06/23 15:51:16.493	6.21686746987952	-0.204819277108434	7.72289156626506	1261.07253209997	-1.0	1190.47619047619	
2015/06/23 15:51:16.501	6.18072289156627	-0.204819277108434	7.72289156626506	1261.797809519	-1.0	1184.61538461538	
2015/06/23 15:51:16.509	6.13253012048193	-0.204819277108434	7.72289156626506	1261.797809519	-1.0	1180.21978021978	
2015/06/23 15:51:16.517	6.1566265060241	-0.228915662650602	7.72289156626506	1261.797809519	-1.0	1175.09157509158	
2015/06/23 15:51:16.525	6.13253012048193	-0.240963855421687	7.73493975903615	1261.07253209997	-1.0	1169.23076923077	
2015/06/23 15:51:16.532	6.12048192771084	-0.253012048192771	7.74698795180723	1261.797809519	-1.0	1164.10256410256	
2015/06/23 15:51:16.540	6.13253012048193	-0.253012048192771	7.74698795180723	1261.797809519	-1.0	1158.24175824176	
2015/06/23 15:51:16.548	6.16867469879518	-0.216867469879518	7.73493975903615	1261.797809519	-1.0	1152.38095238095	
2015/06/23 15:51:16.556	6.18072289156627	-0.204819277108434	7.73493975903615	1261.797809519	-1.0	1146.52014652015	
2015/06/23 15:51:16.564	6.1566265060241	-0.204819277108434	7.72289156626506	1261.07253209997	-1.0	1142.12454212454	
2015/06/23 15:51:16.571	6.16867469879518	-0.216867469879518	7.74698795180723	1261.797809519	-1.0	1141.39194139194	
2015/06/23 15:51:16.579	6.18072289156627	-0.228915662650602	7.72289156626506	1262.52392167201	-1.0	1141.39194139194	
2015/06/23 15:51:16.587	6.13253012048193	-0.228915662650602	7.74698795180723	1261.797809519	-1.0	1142.12454212454	
2015/06/23 15:51:16.595	6.12048192771084	-0.228915662650602	7.73493975903615	1262.52392167201	-1.0	1143.58974358974	
2015/06/23 15:51:16.603	6.1566265060241	-0.216867469879518	7.72289156626506	1261.797809519	-1.0	1146.52014652015	
2015/06/23 15:51:16.611	6.20481927710843	-0.192771084337349	7.72289156626506	1261.797809519	-1.0	1150.91575091575	
2015/06/23 15:51:16.618	6.18072289156627	-0.204819277108434	7.71084337349398	1261.797809519	-1.0	1158.97435897436	
2015/06/23 15:51:16.626	6.18072289156627	-0.204819277108434	7.71084337349398	1261.797809519	-1.0	1169.23076923077	
2015/06/23 15:51:16.634	6.18072289156627	-0.216867469879518	7.72289156626506	1261.797809519	-1.0	1185.34798534799	
2015/06/23 15:51:16.642	6.1566265060241	-0.216867469879518	7.72289156626506	1261.797809519	-1.0	1209.52380952381	
2015/06/23 15:51:16.650	6.1566265060241	-0.216867469879518	7.73493975903615	1261.797809519	-1.0	1241.02564102564	
2015/06/23 15:51:16.657	6.13253012048193	-0.228915662650602	7.71084337349398	1262.52392167201	-1.0	1280.58608058608	
2015/06/23 15:51:16.665	6.12048192771084	-0.228915662650602	7.72289156626506	1262.52392167201	-1.0	1326.73992673993	
2015/06/23 15:51:16.673	6.13253012048193	-0.228915662650602	7.71084337349398	1262.52392167201	-1.0	1378.75457875458	
2015/06/23 15:51:16.681	6.1566265060241	-0.228915662650602	7.74698795180723	1262.52392167201	-1.0	1435.89743589744	
2015/06/23 15:51:16.689	6.16867469879518	-0.253012048192771	7.72289156626506	1262.52392167201	-1.0	1493.77289377289	
2015/06/23 15:51:16.696	6.19277108433735	-0.253012048192771	7.72289156626506	1262.52392167201	-1.0	1549.45054945055	
2015/06/23 15:51:16.704	6.20481927710843	-0.240963855421687	7.71084337349398	1261.797809519	-1.0	1603.663003663	
2015/06/23 15:51:16.712	6.19277108433735	-0.216867469879518	7.72289156626506	1261.797809519	-1.0	1651.28205128205	
2015/06/23 15:51:16.720	6.18072289156627	-0.216867469879518	7.72289156626506	1262.52392167201	-1.0	1692.30769230769	
2015/06/23 15:51:16.728	6.1566265060241	-0.216867469879518	7.72289156626506	1262.52392167201	-1.0	1726.73992673993	
2015/06/23 15:51:16.736	6.16867469879518	-0.204819277108434	7.73493975903615	1262.52392167201	-1.0	1751.64835164835	
2015/06/23 15:51:16.743	6.16867469879518	-0.204819277108434	7.72289156626506	1261.797809519	-1.0	1767.03296703297	
2015/06/23 15:51:16.751	6.1566265060241	-0.216867469879518	7.73493975903615	1261.797809519	-1.0	1775.09157509158	
2015/06/23 15:51:16.759	6.16867469879518	-0.216867469879518	7.72289156626506	1261.797809519	-1.0	1775.09157509158	
2015/06/23 15:51:16.767	6.1566265060241	-0.192771084337349	7.72289156626506	1261.797809519	-1.0	1771.42857142857	
2015/06/23 15:51:16.775	6.16867469879518	-0.228915662650602	7.73493975903615	1261.797809519	-1.0	1764.83516483516	
2015/06/23 15:51:16.782	6.16867469879518	-0.228915662650602	7.71084337349398	1261.797809519	-1.0	1759.70695970696	
2015/06/23 15:51:16.790	6.1566265060241	-0.240963855421687	7.72289156626506	1261.797809519	-1.0	1752.38095238095	
2015/06/23 15:51:16.798	6.18072289156627	-0.228915662650602	7.72289156626506	1262.52392167201	-1.0	1741.39194139194	
2015/06/23 15:51:16.806	6.18072289156627	-0.216867469879518	7.72289156626506	1261.797809519	-1.0	1726.00732600733	
2015/06/23 15:51:16.814	6.16867469879518	-0.216867469879518	7.72289156626506	1262.52392167201	-1.0	1705.49450549451	
2015/06/23 15:51:16.821	6.14457831325301	-0.216867469879518	7.72289156626506	1261.797809519	-1.0	1680.58608058608	
2015/06/23 15:51:16.829	6.12048192771084	-0.228915662650602	7.71084337349398	1261.797809519	-1.0	1651.28205128205	
2015/06/23 15:51:16.837	6.13253012048193	-0.228915662650602	7.74698795180723	1262.52392167201	-1.0	1622.71062271062	
2015/06/23 15:51:16.845	6.14457831325301	-0.253012048192771	7.74698795180723	1262.52392167201	-1.0	1593.40659340659	
2015/06/23 15:51:16.853	6.16867469879518	-0.253012048192771	7.72289156626506	1262.52392167201	-1.0	1564.83516483516	
2015/06/23 15:51:16.861	6.18072289156627	-0.204819277108434	7.71084337349398	1261.797809519	-1.0	1542.85714285714	
2015/06/23 15:51:16.868	6.1566265060241	-0.204819277108434	7.73493975903615	1261.797809519	-1.0	1522.34432234432	
2015/06/23 15:51:16.876	6.18072289156627	-0.204819277108434	7.72289156626506	1263.25087000087	-1.0	1505.49450549451	
2015/06/23 15:51:16.884	6.2289156626506	-0.192771084337349	7.69879518072289	1262.52392167201	-1.0	1499.6336996337	
2015/06/23 15:51:16.892	6.21686746987952	-0.204819277108434	7.71084337349398	1261.797809519	-1.0	1498.9010989011	
2015/06/23 15:51:16.900	6.18072289156627	-0.204819277108434	7.71084337349398	1262.52392167201	-1.0	1503.2967032967	
2015/06/23 15:51:16.907	6.14457831325301	-0.216867469879518	7.73493975903615	1263.25087000087	-1.0	1510.62271062271	
2015/06/23 15:51:16.915	6.13253012048193	-0.228915662650602	7.73493975903615	1263.25087000087	-1.0	1517.94871794872	
2015/06/23 15:51:16.923	6.14457831325301	-0.216867469879518	7.75903614457831	1262.52392167201	-1.0	1522.34432234432	
2015/06/23 15:51:16.931	6.1566265060241	-0.216867469879518	7.73493975903615	1262.52392167201	-1.0	1526.00732600733	
2015/06/23 15:51:16.939	6.12048192771084	-0.228915662650602	7.71084337349398	1263.25087000087	-1.0	1528.93772893773	
2015/06/23 15:51:16.946	6.13253012048193	-0.228915662650602	7.69879518072289	1263.25087000087	-1.0	1531.13553113553	
2015/06/23 15:51:16.954	6.16867469879518	-0.228915662650602	7.71084337349398	1263.25087000087	-1.0	1529.67032967033	
2015/06/23 15:51:16.962	6.16867469879518	-0.228915662650602	7.73493975903615	1262.52392167201	-1.0	1522.34432234432	
2015/06/23 15:51:16.970	6.1566265060241	-0.240963855421687	7.72289156626506	1262.52392167201	-1.0	1509.89010989011	
2015/06/23 15:51:16.978	6.14457831325301	-0.204819277108434	7.72289156626506	1263.25087000087	-1.0	1495.9706959707	
2015/06/23 15:51:16.986	6.16867469879518	-0.216867469879518	7.72289156626506	1262.52392167201	-1.0	1480.58608058608	
2015/06/23 15:51:16.993	6.20481927710843	-0.216867469879518	7.72289156626506	1262.52392167201	-1.0	1466.66666666667	
2015/06/23 15:51:17.001	6.20481927710843	-0.240963855421687	7.73493975903615	1263.25087000087	-1.0	1454.94505494505	
2015/06/23 15:51:17.009	6.19277108433735	-0.240963855421687	7.69879518072289	1262.52392167201	-1.0	1442.49084249084	
2015/06/23 15:51:17.017	6.18072289156627	-0.204819277108434	7.69879518072289	1263.25087000087	-1.0	1427.10622710623	
2015/06/23 15:51:17.025	6.16867469879518	-0.228915662650602	7.69879518072289	1262.52392167201	-1.0	1410.98901098901	
2015/06/23 15:51:17.032	6.16867469879518	-0.228915662650602	7.72289156626506	1263.25087000087	-1.0	1389.74358974359	
2015/06/23 15:51:17.040	6.1566265060241	-0.216867469879518	7.72289156626506	1262.52392167201	-1.0	1369.23076923077	
2015/06/23 15:51:17.048	6.16867469879518	-0.216867469879518	7.72289156626506	1263.25087000087	-1.0	1349.45054945055	
2015/06/23 15:51:17.056	6.16867469879518	-0.228915662650602	7.72289156626506	1262.52392167201	-1.0	1329.67032967033	
2015/06/23 15:51:17.064	6.1566265060241	-0.228915662650602	7.71084337349398	1263.25087000087	-1.0	1310.62271062271	
2015/06/23 15:51:17.071	6.16867469879518	-0.228915662650602	7.72289156626506	1263.25087000087	-1.0	1295.9706959707	
2015/06/23 15:51:17.079	6.1566265060241	-0.216867469879518	7.71084337349398	1263.25087000087	-1.0	1280.58608058608	
2015/06/23 15:51:17.087	6.16867469879518	-0.216867469879518	7.72289156626506	1262.52392167201	-1.0	1268.13186813187	
2015/06/23 15:51:17.095	6.18072289156627	-0.228915662650602	7.73493975903615	1263.25087000087	-1.0	1258.60805860806	
2015/06/23 15:51:17.103	6.1566265060241	-0.216867469879518	7.73493975903615	1263.25087000087	-1.0	1248.35164835165	
2015/06/23 15:51:17.111	6.1566265060241	-0.216867469879518	7.72289156626506	1262.52392167201	-1.0	1240.29304029304	
2015/06/23 15:51:17.118	6.19277108433735	-0.216867469879518	7.71084337349398	1263.25087000087	-1.0	1235.16483516484	
2015/06/23 15:51:17.126	6.19277108433735	-0.240963855421687	7.71084337349398	1263.25087000087	-1.0	1230.76923076923	
2015/06/23 15:51:17.134	6.18072289156627	-0.240963855421687	7.69879518072289	1263.25087000087	-1.0	1224.90842490842	
2015/06/23 15:51:17.142	6.18072289156627	-0.228915662650602	7.72289156626506	1263.25087000087	-1.0	1219.78021978022	
2015/06/23 15:51:17.150	6.16867469879518	-0.216867469879518	7.71084337349398	1262.52392167201	-1.0	1213.18681318681	
2015/06/23 15:51:17.157	6.16867469879518	-0.228915662650602	7.69879518072289	1263.25087000087	-1.0	1207.32600732601	
2015/06/23 15:51:17.165	6.18072289156627	-0.216867469879518	7.72289156626506	1263.25087000087	-1.0	1204.3956043956	
2015/06/23 15:51:17.173	6.18072289156627	-0.216867469879518	7.71084337349398	1263.25087000087	-1.0	1201.4652014652	
2015/06/23 15:51:17.181	6.16867469879518	-0.216867469879518	7.71084337349398	1263.25087000087	-1.0	1199.2673992674	
2015/06/23 15:51:17.189	6.18072289156627	-0.204819277108434	7.71084337349398	1263.25087000087	-1.0	1198.5347985348	
2015/06/23 15:51:17.196	6.16867469879518	-0.216867469879518	7.72289156626506	1263.25087000087	-1.0	1197.0695970696	
2015/06/23 15:51:17.204	6.18072289156627	-0.216867469879518	7.71084337349398	1263.25087000087	-1.0	1195.6043956044	
2015/06/23 15:51:17.212	6.18072289156627	-0.216867469879518	7.72289156626506	1263.25087000087	-1.0	1194.13919413919	
2015/06/23 15:51:17.220	6.16867469879518	-0.204819277108434	7.71084337349398	1263.25087000087	-1.0	1193.40659340659	
2015/06/23 15:51:17.228	6.18072289156627	-0.204819277108434	7.71084337349398	1263.25087000087	-1.0	1196.336996337	
2015/06/23 15:51:17.236	6.16867469879518	-0.216867469879518	7.71084337349398	1263.97865595082	-1.0	1197.0695970696	
2015/06/23 15:51:17.243	6.18072289156627	-0.216867469879518	7.71084337349398	1263.97865595082	-1.0	1199.2673992674	
2015/06/23 15:51:17.251	6.16867469879518	-0.253012048192771	7.71084337349398	1263.97865595082	-1.0	1201.4652014652	
2015/06/23 15:51:17.259	6.18072289156627	-0.216867469879518	7.73493975903615	1263.25087000087	-1.0	1202.1978021978	
2015/06/23 15:51:17.267	6.1566265060241	-0.216867469879518	7.74698795180723	1263.25087000087	-1.0	1201.4652014652	
2015/06/23 15:51:17.275	6.16867469879518	-0.204819277108434	7.72289156626506	1263.25087000087	-1.0	1200.7326007326	
2015/06/23 15:51:17.282	6.18072289156627	-0.204819277108434	7.72289156626506	1263.97865595082	-1.0	1200.0	
2015/06/23 15:51:17.290	6.18072289156627	-0.192771084337349	7.68674698795181	1263.25087000087	-1.0	1195.6043956044	
2015/06/23 15:51:17.298	6.19277108433735	-0.216867469879518	7.71084337349398	1263.97865595082	-1.0	1194.13919413919	
2015/06/23 15:51:17.306	6.18072289156627	-0.240963855421687	7.73493975903615	1263.25087000087	-1.0	1191.94139194139	
2015/06/23 15:51:17.314	6.20481927710843	-0.240963855421687	7.69879518072289	1263.97865595082	-1.0	1189.74358974359	
2015/06/23 15:51:17.321	6.16867469879518	-0.204819277108434	7.71084337349398	1263.97865595082	-1.0	1188.27838827839	
2015/06/23 15:51:17.329	6.12048192771084	-0.204819277108434	7.73493975903615	1263.97865595082	-1.0	1186.08058608059	
2015/06/23 15:51:17.337	6.13253012048193	-0.228915662650602	7.73493975903615	1263.97865595082	-1.0	1183.88278388278	
2015/06/23 15:51:17.345	6.19277108433735	-0.216867469879518	7.72289156626506	1263.97865595082	-1.0	1181.68498168498	
2015/06/23 15:51:17.353	6.19277108433735	-0.228915662650602	7.72289156626506	1263.97865595082	-1.0	1179.48717948718	
2015/06/23 15:51:17.361	6.1566265060241	-0.204819277108434	7.71084337349398	1263.97865595082	-1.0	1178.02197802198	
2015/06/23 15:51:17.368	6.13253012048193	-0.228915662650602	7.71084337349398	1263.25087000087	-1.0	1178.75457875458	
2015/06/23 15:51:17.376	6.18072289156627	-0.228915662650602	7.73493975903615	1263.97865595082	-1.0	1179.48717948718	
2015/06/23 15:51:17.384	6.18072289156627	-0.228915662650602	7.71084337349398	1263.97865595082	-1.0	1180.95238095238	
2015/06/23 15:51:17.392	6.16867469879518	-0.216867469879518	7.72289156626506	1263.97865595082	-1.0	1181.68498168498	
2015/06/23 15:51:17.400	6.12048192771084	-0.204819277108434	7.73493975903615	1263.97865595082	-1.0	1183.15018315018	
2015/06/23 15:51:17.407	6.14457831325301	-0.216867469879518	7.71084337349398	1263.97865595082	-1.0	1188.27838827839	
2015/06/23 15:51:17.415	6.16867469879518	-0.228915662650602	7.73493975903615	1263.97865595082	-1.0	1192.67399267399	
2015/06/23 15:51:17.423	6.19277108433735	-0.216867469879518	7.72289156626506	1263.97865595082	-1.0	1195.6043956044	
2015/06/23 15:51:17.431	6.1566265060241	-0.216867469879518	7.71084337349398	1263.97865595082	-1.0	1200.0	
2015/06/23 15:51:17.439	6.13253012048193	-0.216867469879518	7.72289156626506	1263.97865595082	-1.0	1202.1978021978	
2015/06/23 15:51:17.446	6.18072289156627	-0.216867469879518	7.71084337349398	1263.25087000087	-1.0	1203.663003663	
2015/06/23 15:51:17.454	6.19277108433735	-0.228915662650602	7.71084337349398	1264.70728097041	-1.0	1205.86080586081	
2015/06/23 15:51:17.462	6.18072289156627	-0.240963855421687	7.72289156626506	1263.97865595082	-1.0	1205.86080586081	
2015/06/23 15:51:17.470	6.1566265060241	-0.228915662650602	7.74698795180723	1263.97865595082	-1.0	1204.3956043956	
2015/06/23 15:51:17.478	6.10843373493976	-0.204819277108434	7.71084337349398	1263.97865595082	-1.0	1201.4652014652	
2015/06/23 15:51:17.486	6.16867469879518	-0.180722891566265	7.71084337349398	1263.97865595082	-1.0	1197.8021978022	
2015/06/23 15:51:17.493	6.20481927710843	-0.204819277108434	7.71084337349398	1263.97865595082	-1.0	1194.13919413919	
2015/06/23 15:51:17.501	6.20481927710843	-0.228915662650602	7.71084337349398	1264.70728097041	-1.0	1191.20879120879	
2015/06/23 15:51:17.509	6.19277108433735	-0.228915662650602	7.72289156626506	1263.97865595082	-1.0	1187.54578754579	
2015/06/23 15:51:17.517	6.1566265060241	-0.216867469879518	7.72289156626506	1264.70728097041	-1.0	1184.61538461538	
2015/06/23 15:51:17.525	6.14457831325301	-0.216867469879518	7.73493975903615	1263.97865595082	-1.0	1180.21978021978	
2015/06/23 15:51:17.532	6.13253012048193	-0.240963855421687	7.73493975903615	1263.97865595082	-1.0	1178.75457875458	
2015/06/23 15:51:17.540	6.16867469879518	-0.216867469879518	7.74698795180723	1263.97865595082	-1.0	1179.48717948718	
2015/06/23 15:51:17.548	6.18072289156627	-0.240963855421687	7.73493975903615	1263.25087000087	-1.0	1179.48717948718	
2015/06/23 15:51:17.556	6.18072289156627	-0.204819277108434	7.72289156626506	1264.70728097041	-1.0	1178.02197802198	
2015/06/23 15:51:17.564	6.18072289156627	-0.204819277108434	7.72289156626506	1265.43674651151	-1.0	1180.21978021978	
2015/06/23 15:51:17.571	6.20481927710843	-0.204819277108434	7.73493975903615	1264.70728097041	-1.0	1180.21978021978	
2015/06/23 15:51:17.579	6.18072289156627	-0.204819277108434	7.71084337349398	1264.70728097041	-1.0	1181.68498168498	
2015/06/23 15:51:17.587	6.1566265060241	-0.228915662650602	7.72289156626506	1263.97865595082	-1.0	1183.15018315018	
2015/06/23 15:51:17.595	6.13253012048193	-0.216867469879518	7.71084337349398	1264.70728097041	-1.0	1184.61538461538	
2015/06/23 15:51:17.603	6.16867469879518	-0.228915662650602	7.72289156626506	1264.70728097041	-1.0	1185.34798534799	
2015/06/23 15:51:17.611	6.19277108433735	-0.240963855421687	7.72289156626506	1264.70728097041	-1.0	1187.54578754579	
2015/06/23 15:51:17.618	6.19277108433735	-0.216867469879518	7.72289156626506	1263.97865595082	-1.0	1189.01098901099	
2015/06/23 15:51:17.626	6.18072289156627	-0.228915662650602	7.72289156626506	1264.70728097041	-1.0	1191.94139194139	
2015/06/23 15:51:17.634	6.18072289156627	-0.204819277108434	7.74698795180723	1263.97865595082	-1.0	1200.0	
2015/06/23 15:51:17.642	6.1566265060241	-0.216867469879518	7.73493975903615	1264.70728097041	-1.0	1211.72161172161	
2015/06/23 15:51:17.650	6.18072289156627	-0.192771084337349	7.72289156626506	1264.70728097041	-1.0	1229.30402930403	
2015/06/23 15:51:17.657	6.18072289156627	-0.216867469879518	7.73493975903615	1264.70728097041	-1.0	1256.41025641026	
2015/06/23 15:51:17.665	6.14457831325301	-0.240963855421687	7.72289156626506	1264.70728097041	-1.0	1288.64468864469	
2015/06/23 15:51:17.673	6.14457831325301	-0.228915662650602	7.72289156626506	1264.70728097041	-1.0	1324.54212454212	
2015/06/23 15:51:17.681	6.14457831325301	-0.228915662650602	7.73493975903615	1264.70728097041	-1.0	1363.36996336996	
2015/06/23 15:51:17.689	6.14457831325301	-0.240963855421687	7.72289156626506	1264.70728097041	-1.0	1405.12820512821	
2015/06/23 15:51:17.696	6.16867469879518	-0.228915662650602	7.72289156626506	1265.43674651151	-1.0	1446.88644688645	
2015/06/23 15:51:17.704	6.18072289156627	-0.216867469879518	7.71084337349398	1264.70728097041	-1.0	1487.91208791209	
2015/06/23 15:51:17.712	6.16867469879518	-0.228915662650602	7.73493975903615	1264.70728097041	-1.0	1523.80952380952	
2015/06/23 15:51:17.720	6.16867469879518	-0.228915662650602	7.72289156626506	1265.43674651151	-1.0	1557.50915750916	
2015/06/23 15:51:17.728	6.20481927710843	-0.204819277108434	7.73493975903615	1264.70728097041	-1.0	1585.34798534799	
2015/06/23 15:51:17.736	6.18072289156627	-0.192771084337349	7.74698795180723	1265.43674651151	-1.0	1608.79120879121	
2015/06/23 15:51:17.743	6.1566265060241	-0.192771084337349	7.72289156626506	1264.70728097041	-1.0	1629.30402930403	
2015/06/23 15:51:17.751	6.16867469879518	-0.228915662650602	7.73493975903615	1264.70728097041	-1.0	1646.15384615385	
2015/06/23 15:51:17.759	6.1566265060241	-0.204819277108434	7.72289156626506	1265.43674651151	-1.0	1659.34065934066	
2015/06/23 15:51:17.767	6.14457831325301	-0.216867469879518	7.71084337349398	1263.97865595082	-1.0	1668.86446886447	
2015/06/23 15:51:17.775	6.14457831325301	-0.216867469879518	7.72289156626506	1264.70728097041	-1.0	1672.52747252747	
2015/06/23 15:51:17.782	6.14457831325301	-0.253012048192771	7.71084337349398	1265.43674651151	-1.0	1668.86446886447	
2015/06/23 15:51:17.790	6.14457831325301	-0.216867469879518	7.74698795180723	1264.70728097041	-1.0	1659.34065934066	
2015/06/23 15:51:17.798	6.18072289156627	-0.216867469879518	7.74698795180723	1265.43674651151	-1.0	1643.95604395604	
2015/06/23 15:51:17.806	6.21686746987952	-0.216867469879518	7.72289156626506	1264.70728097041	-1.0	1624.17582417582	
2015/06/23 15:51:17.814	6.16867469879518	-0.204819277108434	7.73493975903615	1264.70728097041	-1.0	1604.3956043956	
2015/06/23 15:51:17.821	6.13253012048193	-0.216867469879518	7.74698795180723	1265.43674651151	-1.0	1581.68498168498	
2015/06/23 15:51:17.829	6.10843373493976	-0.216867469879518	7.73493975903615	1265.43674651151	-1.0	1559.70695970696	
2015/06/23 15:51:17.837	6.13253012048193	-0.228915662650602	7.74698795180723	1264.70728097041	-1.0	1534.06593406593	
2015/06/23 15:51:17.845	6.12048192771084	-0.240963855421687	7.74698795180723	1265.43674651151	-1.0	1510.62271062271	
2015/06/23 15:51:17.853	6.14457831325301	-0.253012048192771	7.72289156626506	1264.70728097041	-1.0	1490.10989010989	
2015/06/23 15:51:17.861	6.1566265060241	-0.240963855421687	7.71084337349398	1265.43674651151	-1.0	1471.06227106227	
2015/06/23 15:51:17.868	6.20481927710843	-0.228915662650602	7.73493975903615	1264.70728097041	-1.0	1456.41025641026	
2015/06/23 15:51:17.876	6.21686746987952	-0.204819277108434	7.71084337349398	1265.43674651151	-1.0	1447.61904761905	
2015/06/23 15:51:17.884	6.20481927710843	-0.192771084337349	7.71084337349398	1264.70728097041	-1.0	1444.68864468864	
2015/06/23 15:51:17.892	6.18072289156627	-0.180722891566265	7.72289156626506	1265.43674651151	-1.0	1446.15384615385	
2015/06/23 15:51:17.900	6.18072289156627	-0.192771084337349	7.72289156626506	1265.43674651151	-1.0	1451.28205128205	
2015/06/23 15:51:17.907	6.18072289156627	-0.228915662650602	7.73493975903615	1265.43674651151	-1.0	1456.41025641026	
2015/06/23 15:51:17.915	6.1566265060241	-0.192771084337349	7.73493975903615	1265.43674651151	-1.0	1462.27106227106	
2015/06/23 15:51:17.923	6.12048192771084	-0.204819277108434	7.72289156626506	1266.16705402937	-1.0	1469.59706959707	
2015/06/23 15:51:17.931	6.12048192771084	-0.216867469879518	7.72289156626506	1264.70728097041	-1.0	1474.72527472527	
2015/06/23 15:51:17.939	6.12048192771084	-0.228915662650602	7.73493975903615	1265.43674651151	-1.0	1479.12087912088	
2015/06/23 15:51:17.946	6.16867469879518	-0.216867469879518	7.72289156626506	1265.43674651151	-1.0	1479.85347985348	
2015/06/23 15:51:17.954	6.18072289156627	-0.228915662650602	7.72289156626506	1264.70728097041	-1.0	1479.12087912088	
2015/06/23 15:51:17.962	6.16867469879518	-0.204819277108434	7.72289156626506	1265.43674651151	-1.0	1474.72527472527	
2015/06/23 15:51:17.970	6.1566265060241	-0.216867469879518	7.69879518072289	1265.43674651151	-1.0	1467.39926739927	
2015/06/23 15:51:17.978	6.1566265060241	-0.216867469879518	7.72289156626506	1265.43674651151	-1.0	1456.41025641026	
2015/06/23 15:51:17.986	6.16867469879518	-0.216867469879518	7.71084337349398	1265.43674651151	-1.0	1446.88644688645	
2015/06/23 15:51:17.993	6.18072289156627	-0.228915662650602	7.73493975903615	1265.43674651151	-1.0	1435.16483516484	
2015/06/23 15:51:18.001	6.18072289156627	-0.228915662650602	7.72289156626506	1266.16705402937	-1.0	1423.44322344322	
2015/06/23 15:51:18.009	6.1566265060241	-0.240963855421687	7.72289156626506	1265.43674651151	-1.0	1411.72161172161	
2015/06/23 15:51:18.017	6.16867469879518	-0.216867469879518	7.72289156626506	1265.43674651151	-1.0	1397.0695970696	
2015/06/23 15:51:18.025	6.18072289156627	-0.204819277108434	7.73493975903615	1264.70728097041	-1.0	1381.68498168498	
2015/06/23 15:51:18.032	6.16867469879518	-0.216867469879518	7.72289156626506	1265.43674651151	-1.0	1367.76556776557	
2015/06/23 15:51:18.040	6.18072289156627	-0.204819277108434	7.72289156626506	1266.16705402937	-1.0	1353.84615384615	
2015/06/23 15:51:18.048	6.18072289156627	-0.204819277108434	7.72289156626506	1265.43674651151	-1.0	1337.72893772894	
2015/06/23 15:51:18.056	6.1566265060241	-0.192771084337349	7.72289156626506	1265.43674651151	-1.0	1322.34432234432	
2015/06/23 15:51:18.064	6.1566265060241	-0.228915662650602	7.71084337349398	1265.43674651151	-1.0	1306.95970695971	
2015/06/23 15:51:18.071	6.18072289156627	-0.204819277108434	7.73493975903615	1265.43674651151	-1.0	1292.30769230769	
2015/06/23 15:51:18.079	6.18072289156627	-0.216867469879518	7.72289156626506	1265.43674651151	-1.0	1278.38827838828	
2015/06/23 15:51:18.087	6.1566265060241	-0.228915662650602	7.72289156626506	1265.43674651151	-1.0	1265.93406593407	
2015/06/23 15:51:18.095	6.1566265060241	-0.228915662650602	7.72289156626506	1266.16705402937	-1.0	1254.94505494506	
2015/06/23 15:51:18.103	6.1566265060241	-0.216867469879518	7.73493975903615	1265.43674651151	-1.0	1246.15384615385	
2015/06/23 15:51:18.111	6.16867469879518	-0.216867469879518	7.73493975903615	1266.16705402937	-1.0	1240.29304029304	
2015/06/23 15:51:18.118	6.16867469879518	-0.228915662650602	7.73493975903615	1266.16705402937	-1.0	1235.89743589744	
2015/06/23 15:51:18.126	6.16867469879518	-0.228915662650602	7.73493975903615	1266.16705402937	-1.0	1231.50183150183	
2015/06/23 15:51:18.134	6.1566265060241	-0.216867469879518	7.72289156626506	1266.16705402937	-1.0	1226.37362637363	
2015/06/23 15:51:18.142	6.14457831325301	-0.216867469879518	7.72289156626506	1265.43674651151	-1.0	1224.17582417582	
2015/06/23 15:51:18.150	6.1566265060241	-0.216867469879518	7.72289156626506	1265.43674651151	-1.0	1218.31501831502	
2015/06/23 15:51:18.157	6.18072289156627	-0.228915662650602	7.72289156626506	1266.16705402937	-1.0	1213.91941391941	
2015/06/23 15:51:18.165	6.1566265060241	-0.204819277108434	7.72289156626506	1265.43674651151	-1.0	1209.52380952381	
2015/06/23 15:51:18.173	6.1566265060241	-0.216867469879518	7.72289156626506	1266.16705402937	-1.0	1204.3956043956	
2015/06/23 15:51:18.181	6.16867469879518	-0.216867469879518	7.73493975903615	1265.43674651151	-1.0	1197.8021978022	
2015/06/23 15:51:18.189	6.1566265060241	-0.216867469879518	7.73493975903615	1266.16705402937	-1.0	1190.47619047619	
2015/06/23 15:51:18.196	6.1566265060241	-0.204819277108434	7.74698795180723	1266.16705402937	-1.0	1180.95238095238	
2015/06/23 15:51:18.204	6.14457831325301	-0.216867469879518	7.73493975903615	1265.43674651151	-1.0	1172.89377289377	
2015/06/23 15:51:18.212	6.14457831325301	-0.228915662650602	7.72289156626506	1265.43674651151	-1.0	1167.76556776557	
2015/06/23 15:51:18.220	6.14457831325301	-0.216867469879518	7.74698795180723	1266.16705402937	-1.0	1166.30036630037	
2015/06/23 15:51:18.228	6.1566265060241	-0.228915662650602	7.73493975903615	1266.16705402937	-1.0	1166.30036630037	
2015/06/23 15:51:18.236	6.18072289156627	-0.216867469879518	7.73493975903615	1266.16705402937	-1.0	1165.56776556777	
2015/06/23 15:51:18.243	6.1566265060241	-0.228915662650602	7.72289156626506	1266.16705402937	-1.0	1165.56776556777	
2015/06/23 15:51:18.251	6.14457831325301	-0.216867469879518	7.73493975903615	1266.16705402937	-1.0	1165.56776556777	
2015/06/23 15:51:18.259	6.14457831325301	-0.204819277108434	7.73493975903615	1265.43674651151	-1.0	1165.56776556777	
2015/06/23 15:51:18.267	6.16867469879518	-0.216867469879518	7.73493975903615	1266.16705402937	-1.0	1167.76556776557	
2015/06/23 15:51:18.275	6.16867469879518	-0.228915662650602	7.74698795180723	1266.16705402937	-1.0	1166.30036630037	
2015/06/23 15:51:18.282	6.16867469879518	-0.240963855421687	7.71084337349398	1266.16705402937	-1.0	1164.10256410256	
2015/06/23 15:51:18.290	6.14457831325301	-0.192771084337349	7.73493975903615	1266.16705402937	-1.0	1162.63736263736	
2015/06/23 15:51:18.298	6.10843373493976	-0.204819277108434	7.72289156626506	1265.43674651151	-1.0	1160.43956043956	
2015/06/23 15:51:18.306	6.1566265060241	-0.204819277108434	7.73493975903615	1266.16705402937	-1.0	1158.97435897436	
2015/06/23 15:51:18.314	6.18072289156627	-0.228915662650602	7.72289156626506	1266.16705402937	-1.0	1159.70695970696	
2015/06/23 15:51:18.321	6.16867469879518	-0.204819277108434	7.72289156626506	1266.16705402937	-1.0	1161.17216117216	
2015/06/23 15:51:18.329	6.1566265060241	-0.228915662650602	7.73493975903615	1265.43674651151	-1.0	1163.36996336996	
2015/06/23 15:51:18.337	6.13253012048193	-0.228915662650602	7.74698795180723	1266.16705402937	-1.0	1165.56776556777	
2015/06/23 15:51:18.345	6.1566265060241	-0.216867469879518	7.73493975903615	1266.16705402937	-1.0	1168.49816849817	
2015/06/23 15:51:18.353	6.14457831325301	-0.216867469879518	7.72289156626506	1266.16705402937	-1.0	1169.96336996337	
2015/06/23 15:51:18.361	6.1566265060241	-0.204819277108434	7.73493975903615	1266.16705402937	-1.0	1170.69597069597	
2015/06/23 15:51:18.368	6.14457831325301	-0.216867469879518	7.72289156626506	1265.43674651151	-1.0	1171.42857142857	
2015/06/23 15:51:18.376	6.16867469879518	-0.216867469879518	7.69879518072289	1266.16705402937	-1.0	1172.89377289377	
2015/06/23 15:51:18.384	6.1566265060241	-0.204819277108434	7.73493975903615	1266.16705402937	-1.0	1174.35897435897	
2015/06/23 15:51:18.392	6.1566265060241	-0.216867469879518	7.72289156626506	1265.43674651151	-1.0	1179.48717948718	
2015/06/23 15:51:18.400	6.14457831325301	-0.216867469879518	7.73493975903615	1266.16705402937	-1.0	1181.68498168498	
2015/06/23 15:51:18.407	6.13253012048193	-0.240963855421687	7.73493975903615	1266.16705402937	-1.0	1184.61538461538	
2015/06/23 15:51:18.415	6.13253012048193	-0.204819277108434	7.73493975903615	1266.16705402937	-1.0	1188.27838827839	
2015/06/23 15:51:18.423	6.16867469879518	-0.216867469879518	7.74698795180723	1266.16705402937	-1.0	1191.20879120879	
2015/06/23 15:51:18.431	6.19277108433735	-0.204819277108434	7.72289156626506	1265.43674651151	-1.0	1196.336996337	
2015/06/23 15:51:18.439	6.16867469879518	-0.228915662650602	7.69879518072289	1266.16705402937	-1.0	1203.663003663	
2015/06/23 15:51:18.446	6.1566265060241	-0.228915662650602	7.73493975903615	1266.16705402937	-1.0	1210.98901098901	
2015/06/23 15:51:18.454	6.14457831325301	-0.192771084337349	7.74698795180723	1266.16705402937	-1.0	1218.31501831502	
2015/06/23 15:51:18.462	6.1566265060241	-0.204819277108434	7.73493975903615	1266.16705402937	-1.0	1221.97802197802	
2015/06/23 15:51:18.470	6.16867469879518	-0.216867469879518	7.71084337349398	1266.16705402937	-1.0	1227.10622710623	
2015/06/23 15:51:18.478	6.16867469879518	-0.216867469879518	7.73493975903615	1266.16705402937	-1.0	1227.83882783883	
2015/06/23 15:51:18.486	6.19277108433735	-0.204819277108434	7.73493975903615	1266.16705402937	-1.0	1226.37362637363	
2015/06/23 15:51:18.493	6.19277108433735	-0.180722891566265	7.73493975903615	1266.16705402937	-1.0	1222.71062271062	
2015/06/23 15:51:18.501	6.1566265060241	-0.192771084337349	7.72289156626506	1266.89820498261	-1.0	1219.78021978022	
2015/06/23 15:51:18.509	6.12048192771084	-0.204819277108434	7.72289156626506	1266.16705402937	-1.0	1217.58241758242	
2015/06/23 15:51:18.517	6.12048192771084	-0.204819277108434	7.73493975903615	1266.89820498261	-1.0	1213.91941391941	
2015/06/23 15:51:18.525	6.12048192771084	-0.216867469879518	7.73493975903615	1266.16705402937	-1.0	1213.18681318681	
2015/06/23 15:51:18.532	6.1566265060241	-0.240963855421687	7.73493975903615	1265.43674651151	-1.0	1210.98901098901	
2015/06/23 15:51:18.540	6.16867469879518	-0.216867469879518	7.73493975903615	1266.16705402937	-1.0	1207.32600732601	
2015/06/23 15:51:18.548	6.1566265060241	-0.192771084337349	7.73493975903615	1266.16705402937	-1.0	1201.4652014652	
2015/06/23 15:51:18.556	6.14457831325301	-0.216867469879518	7.74698795180723	1266.16705402937	-1.0	1197.0695970696	
2015/06/23 15:51:18.564	6.1566265060241	-0.204819277108434	7.73493975903615	1266.89820498261	-1.0	1193.40659340659	
2015/06/23 15:51:18.571	6.1566265060241	-0.216867469879518	7.75903614457831	1266.16705402937	-1.0	1189.74358974359	
2015/06/23 15:51:18.579	6.14457831325301	-0.216867469879518	7.74698795180723	1266.16705402937	-1.0	1189.01098901099	
2015/06/23 15:51:18.587	6.14457831325301	-0.216867469879518	7.71084337349398	1266.16705402937	-1.0	1186.81318681319	
2015/06/23 15:51:18.595	6.14457831325301	-0.216867469879518	7.72289156626506	1266.16705402937	-1.0	1188.27838827839	
2015/06/23 15:51:18.603	6.18072289156627	-0.204819277108434	7.69879518072289	1266.16705402937	-1.0	1192.67399267399	
2015/06/23 15:51:18.611	6.19277108433735	-0.204819277108434	7.71084337349398	1266.16705402937	-1.0	1197.8021978022	
2015/06/23 15:51:18.618	6.19277108433735	-0.204819277108434	7.72289156626506	1266.16705402937	-1.0	1205.12820512821	
2015/06/23 15:51:18.626	6.18072289156627	-0.192771084337349	7.72289156626506	1266.16705402937	-1.0	1215.38461538462	
2015/06/23 15:51:18.634	6.18072289156627	-0.192771084337349	7.72289156626506	1266.16705402937	-1.0	1230.03663003663	
2015/06/23 15:51:18.642	6.1566265060241	-0.216867469879518	7.74698795180723	1266.16705402937	-1.0	1249.81684981685	
2015/06/23 15:51:18.650	6.1566265060241	-0.228915662650602	7.72289156626506	1266.16705402937	-1.0	1276.92307692308	
2015/06/23 15:51:18.657	6.12048192771084	-0.216867469879518	7.71084337349398	1266.16705402937	-1.0	1312.82051282051	
2015/06/23 15:51:18.665	6.13253012048193	-0.216867469879518	7.72289156626506	1266.16705402937	-1.0	1355.31135531136	
2015/06/23 15:51:18.673	6.1566265060241	-0.216867469879518	7.75903614457831	1266.16705402937	-1.0	1402.9304029304	
2015/06/23 15:51:18.681	6.18072289156627	-0.228915662650602	7.71084337349398	1266.16705402937	-1.0	1453.47985347985	
2015/06/23 15:51:18.689	6.1566265060241	-0.204819277108434	7.72289156626506	1266.16705402937	-1.0	1505.49450549451	
2015/06/23 15:51:18.696	6.14457831325301	-0.204819277108434	7.73493975903615	1266.89820498261	-1.0	1556.77655677656	
2015/06/23 15:51:18.704	6.18072289156627	-0.228915662650602	7.73493975903615	1266.89820498261	-1.0	1605.12820512821	
2015/06/23 15:51:18.712	6.21686746987952	-0.228915662650602	7.72289156626506	1265.43674651151	-1.0	1647.61904761905	
2015/06/23 15:51:18.720	6.20481927710843	-0.216867469879518	7.73493975903615	1266.16705402937	-1.0	1682.78388278388	
2015/06/23 15:51:18.728	6.14457831325301	-0.204819277108434	7.72289156626506	1266.16705402937	-1.0	1709.89010989011	
2015/06/23 15:51:18.736	6.13253012048193	-0.216867469879518	7.72289156626506	1266.16705402937	-1.0	1731.13553113553	
2015/06/23 15:51:18.743	6.13253012048193	-0.204819277108434	7.74698795180723	1266.16705402937	-1.0	1746.52014652015	
2015/06/23 15:51:18.751	6.19277108433735	-0.204819277108434	7.73493975903615	1266.16705402937	-1.0	1758.24175824176	
2015/06/23 15:51:18.759	6.14457831325301	-0.204819277108434	7.73493975903615	1266.89820498261	-1.0	1764.10256410256	
2015/06/23 15:51:18.767	6.13253012048193	-0.204819277108434	7.72289156626506	1265.43674651151	-1.0	1766.30036630037	
2015/06/23 15:51:18.775	6.13253012048193	-0.216867469879518	7.71084337349398	1266.16705402937	-1.0	1765.56776556777	
2015/06/23 15:51:18.782	6.14457831325301	-0.240963855421687	7.73493975903615	1266.89820498261	-1.0	1761.90476190476	
2015/06/23 15:51:18.790	6.16867469879518	-0.228915662650602	7.72289156626506	1266.16705402937	-1.0	1755.31135531136	
2015/06/23 15:51:18.798	6.18072289156627	-0.228915662650602	7.71084337349398	1265.43674651151	-1.0	1747.98534798535	
2015/06/23 15:51:18.806	6.1566265060241	-0.204819277108434	7.74698795180723	1265.43674651151	-1.0	1734.06593406593	
2015/06/23 15:51:18.814	6.14457831325301	-0.204819277108434	7.72289156626506	1266.16705402937	-1.0	1718.68131868132	
2015/06/23 15:51:18.821	6.14457831325301	-0.192771084337349	7.73493975903615	1266.16705402937	-1.0	1698.9010989011	
2015/06/23 15:51:18.829	6.1566265060241	-0.228915662650602	7.75903614457831	1266.16705402937	-1.0	1676.19047619048	
2015/06/23 15:51:18.837	6.13253012048193	-0.216867469879518	7.73493975903615	1266.16705402937	-1.0	1653.47985347985	
2015/06/23 15:51:18.845	6.12048192771084	-0.240963855421687	7.72289156626506	1266.16705402937	-1.0	1629.30402930403	
2015/06/23 15:51:18.853	6.14457831325301	-0.216867469879518	7.73493975903615	1266.16705402937	-1.0	1610.25641025641	
2015/06/23 15:51:18.861	6.16867469879518	-0.228915662650602	7.72289156626506	1266.16705402937	-1.0	1598.5347985348	
2015/06/23 15:51:18.868	6.18072289156627	-0.216867469879518	7.73493975903615	1265.43674651151	-1.0	1589.01098901099	
2015/06/23 15:51:18.876	6.20481927710843	-0.192771084337349	7.72289156626506	1266.16705402937	-1.0	1581.68498168498	
2015/06/23 15:51:18.884	6.20481927710843	-0.180722891566265	7.73493975903615	1266.89820498261	-1.0	1577.28937728938	
2015/06/23 15:51:18.892	6.16867469879518	-0.168674698795181	7.73493975903615	1266.16705402937	-1.0	1575.09157509157	
2015/06/23 15:51:18.900	6.18072289156627	-0.192771084337349	7.73493975903615	1266.16705402937	-1.0	1575.09157509157	
2015/06/23 15:51:18.907	6.16867469879518	-0.204819277108434	7.72289156626506	1266.16705402937	-1.0	1577.28937728938	
2015/06/23 15:51:18.915	6.14457831325301	-0.204819277108434	7.73493975903615	1265.43674651151	-1.0	1579.48717948718	
2015/06/23 15:51:18.923	6.12048192771084	-0.216867469879518	7.74698795180723	1266.16705402937	-1.0	1579.48717948718	
2015/06/23 15:51:18.931	6.12048192771084	-0.228915662650602	7.74698795180723	1265.43674651151	-1.0	1580.21978021978	
2015/06/23 15:51:18.939	6.10843373493976	-0.240963855421687	7.74698795180723	1266.16705402937	-1.0	1578.75457875458	
2015/06/23 15:51:18.946	6.12048192771084	-0.240963855421687	7.74698795180723	1266.16705402937	-1.0	1574.35897435897	
2015/06/23 15:51:18.954	6.14457831325301	-0.240963855421687	7.73493975903615	1265.43674651151	-1.0	1567.03296703297	
2015/06/23 15:51:18.962	6.16867469879518	-0.204819277108434	7.72289156626506	1266.16705402937	-1.0	1559.70695970696	
2015/06/23 15:51:18.970	6.16867469879518	-0.204819277108434	7.72289156626506	1266.16705402937	-1.0	1550.91575091575	
2015/06/23 15:51:18.978	6.16867469879518	-0.204819277108434	7.71084337349398	1266.16705402937	-1.0	1539.19413919414	
2015/06/23 15:51:18.986	6.16867469879518	-0.204819277108434	7.72289156626506	1266.16705402937	-1.0	1527.47252747253	
2015/06/23 15:51:18.993	6.18072289156627	-0.192771084337349	7.72289156626506	1266.16705402937	-1.0	1513.55311355311	
2015/06/23 15:51:19.001	6.18072289156627	-0.204819277108434	7.72289156626506	1266.16705402937	-1.0	1498.1684981685	
2015/06/23 15:51:19.009	6.1566265060241	-0.228915662650602	7.73493975903615	1266.16705402937	-1.0	1482.05128205128	
2015/06/23 15:51:19.017	6.1566265060241	-0.228915662650602	7.73493975903615	1266.16705402937	-1.0	1464.46886446886	
2015/06/23 15:51:19.025	6.16867469879518	-0.216867469879518	7.73493975903615	1266.16705402937	-1.0	1446.15384615385	
2015/06/23 15:51:19.032	6.1566265060241	-0.204819277108434	7.75903614457831	1266.16705402937	-1.0	1430.03663003663	
2015/06/23 15:51:19.040	6.13253012048193	-0.192771084337349	7.72289156626506	1266.16705402937	-1.0	1410.98901098901	
2015/06/23 15:51:19.048	6.14457831325301	-0.228915662650602	7.73493975903615	1265.43674651151	-1.0	1394.87179487179	
2015/06/23 15:51:19.056	6.16867469879518	-0.216867469879518	7.73493975903615	1266.16705402937	-1.0	1374.35897435897	
2015/06/23 15:51:19.064	6.18072289156627	-0.216867469879518	7.72289156626506	1266.16705402937	-1.0	1354.57875457875	
2015/06/23 15:51:19.071	6.18072289156627	-0.216867469879518	7.72289156626506	1266.16705402937	-1.0	1335.53113553114	
2015/06/23 15:51:19.079	6.14457831325301	-0.216867469879518	7.72289156626506	1266.89820498261	-1.0	1317.94871794872	
2015/06/23 15:51:19.087	6.1566265060241	-0.216867469879518	7.71084337349398	1265.43674651151	-1.0	1304.7619047619	
2015/06/23 15:51:19.095	6.14457831325301	-0.228915662650602	7.72289156626506	1265.43674651151	-1.0	1293.04029304029	
2015/06/23 15:51:19.103	6.14457831325301	-0.216867469879518	7.72289156626506	1266.16705402937	-1.0	1282.05128205128	
2015/06/23 15:51:19.111	6.1566265060241	-0.204819277108434	7.72289156626506	1266.16705402937	-1.0	1274.72527472527	
2015/06/23 15:51:19.118	6.1566265060241	-0.204819277108434	7.73493975903615	1266.89820498261	-1.0	1268.13186813187	
2015/06/23 15:51:19.126	6.16867469879518	-0.216867469879518	7.73493975903615	1265.43674651151	-1.0	1261.53846153846	
2015/06/23 15:51:19.134	6.1566265060241	-0.204819277108434	7.73493975903615	1266.16705402937	-1.0	1252.74725274725	
2015/06/23 15:51:19.142	6.1566265060241	-0.204819277108434	7.72289156626506	1266.16705402937	-1.0	1244.68864468864	
2015/06/23 15:51:19.150	6.16867469879518	-0.204819277108434	7.74698795180723	1266.16705402937	-1.0	1238.09523809524	
2015/06/23 15:51:19.157	6.16867469879518	-0.216867469879518	7.74698795180723	1266.16705402937	-1.0	1234.43223443223	
2015/06/23 15:51:19.165	6.19277108433735	-0.216867469879518	7.71084337349398	1266.16705402937	-1.0	1231.50183150183	
2015/06/23 15:51:19.173	6.1566265060241	-0.204819277108434	7.73493975903615	1266.16705402937	-1.0	1228.57142857143	
2015/06/23 15:51:19.181	6.14457831325301	-0.240963855421687	7.74698795180723	1266.16705402937	-1.0	1227.83882783883	
2015/06/23 15:51:19.189	6.13253012048193	-0.216867469879518	7.72289156626506	1266.16705402937	-1.0	1231.50183150183	
2015/06/23 15:51:19.196	6.1566265060241	-0.240963855421687	7.72289156626506	1266.16705402937	-1.0	1230.03663003663	
2015/06/23 15:51:19.204	6.1566265060241	-0.204819277108434	7.73493975903615	1266.16705402937	-1.0	1224.90842490842	
2015/06/23 15:51:19.212	6.14457831325301	-0.216867469879518	7.74698795180723	1266.16705402937	-1.0	1217.58241758242	
2015/06/23 15:51:19.220	6.13253012048193	-0.216867469879518	7.72289156626506	1266.16705402937	-1.0	1211.72161172161	
2015/06/23 15:51:19.228	6.16867469879518	-0.228915662650602	7.74698795180723	1265.43674651151	-1.0	1208.05860805861	
2015/06/23 15:51:19.236	6.19277108433735	-0.204819277108434	7.73493975903615	1264.70728097041	-1.0	1205.12820512821	
2015/06/23 15:51:19.243	6.16867469879518	-0.204819277108434	7.73493975903615	1266.16705402937	-1.0	1205.86080586081	
2015/06/23 15:51:19.251	6.1566265060241	-0.204819277108434	7.72289156626506	1266.16705402937	-1.0	1207.32600732601	
2015/06/23 15:51:19.259	6.14457831325301	-0.204819277108434	7.73493975903615	1265.43674651151	-1.0	1208.05860805861	
2015/06/23 15:51:19.267	6.1566265060241	-0.216867469879518	7.74698795180723	1265.43674651151	-1.0	1209.52380952381	
2015/06/23 15:51:19.275	6.18072289156627	-0.204819277108434	7.73493975903615	1265.43674651151	-1.0	1208.79120879121	
2015/06/23 15:51:19.282	6.14457831325301	-0.216867469879518	7.72289156626506	1266.16705402937	-1.0	1207.32600732601	
2015/06/23 15:51:19.290	6.14457831325301	-0.192771084337349	7.72289156626506	1265.43674651151	-1.0	1207.32600732601	
2015/06/23 15:51:19.298	6.14457831325301	-0.216867469879518	7.73493975903615	1265.43674651151	-1.0	1207.32600732601	
2015/06/23 15:51:19.306	6.16867469879518	-0.228915662650602	7.72289156626506	1264.70728097041	-1.0	1208.05860805861	
2015/06/23 15:51:19.314	6.18072289156627	-0.216867469879518	7.72289156626506	1265.43674651151	-1.0	1210.25641025641	
2015/06/23 15:51:19.321	6.18072289156627	-0.204819277108434	7.71084337349398	1265.43674651151	-1.0	1211.72161172161	
2015/06/23 15:51:19.329	6.1566265060241	-0.204819277108434	7.73493975903615	1265.43674651151	-1.0	1213.18681318681	
2015/06/23 15:51:19.337	6.14457831325301	-0.192771084337349	7.73493975903615	1265.43674651151	-1.0	1215.38461538462	
2015/06/23 15:51:19.345	6.1566265060241	-0.192771084337349	7.74698795180723	1265.43674651151	-1.0	1218.31501831502	
2015/06/23 15:51:19.353	6.18072289156627	-0.204819277108434	7.73493975903615	1265.43674651151	-1.0	1220.51282051282	
2015/06/23 15:51:19.361	6.1566265060241	-0.204819277108434	7.74698795180723	1266.16705402937	-1.0	1221.24542124542	
2015/06/23 15:51:19.368	6.14457831325301	-0.216867469879518	7.72289156626506	1265.43674651151	-1.0	1222.71062271062	
2015/06/23 15:51:19.376	6.14457831325301	-0.240963855421687	7.73493975903615	1265.43674651151	-1.0	1223.44322344322	
2015/06/23 15:51:19.384	6.18072289156627	-0.216867469879518	7.71084337349398	1265.43674651151	-1.0	1221.97802197802	
2015/06/23 15:51:19.392	6.18072289156627	-0.204819277108434	7.73493975903615	1264.70728097041	-1.0	1222.71062271062	
2015/06/23 15:51:19.400	6.1566265060241	-0.204819277108434	7.73493975903615	1266.16705402937	-1.0	1221.24542124542	
2015/06/23 15:51:19.407	6.14457831325301	-0.204819277108434	7.73493975903615	1265.43674651151	-1.0	1221.24542124542	
2015/06/23 15:51:19.415	6.16867469879518	-0.204819277108434	7.72289156626506	1265.43674651151	-1.0	1221.24542124542	
2015/06/23 15:51:19.423	6.14457831325301	-0.228915662650602	7.72289156626506	1264.70728097041	-1.0	1220.51282051282	
2015/06/23 15:51:19.431	6.16867469879518	-0.204819277108434	7.73493975903615	1265.43674651151	-1.0	1216.84981684982	
2015/06/23 15:51:19.439	6.14457831325301	-0.204819277108434	7.72289156626506	1265.43674651151	-1.0	1217.58241758242	
2015/06/23 15:51:19.446	6.16867469879518	-0.204819277108434	7.69879518072289	1265.43674651151	-1.0	1215.38461538462	
2015/06/23 15:51:19.454	6.14457831325301	-0.216867469879518	7.71084337349398	1265.43674651151	-1.0	1210.98901098901	
2015/06/23 15:51:19.462	6.16867469879518	-0.204819277108434	7.71084337349398	1266.16705402937	-1.0	1205.86080586081	
2015/06/23 15:51:19.470	6.18072289156627	-0.216867469879518	7.71084337349398	1265.43674651151	-1.0	1201.4652014652	
2015/06/23 15:51:19.478	6.19277108433735	-0.228915662650602	7.72289156626506	1265.43674651151	-1.0	1200.7326007326	
2015/06/23 15:51:19.486	6.1566265060241	-0.228915662650602	7.72289156626506	1265.43674651151	-1.0	1203.663003663	
2015/06/23 15:51:19.493	6.1566265060241	-0.216867469879518	7.73493975903615	1265.43674651151	-1.0	1209.52380952381	
2015/06/23 15:51:19.501	6.1566265060241	-0.204819277108434	7.71084337349398	1265.43674651151	-1.0	1214.65201465201	
2015/06/23 15:51:19.509	6.18072289156627	-0.204819277108434	7.71084337349398	1266.16705402937	-1.0	1219.78021978022	
2015/06/23 15:51:19.517	6.19277108433735	-0.204819277108434	7.72289156626506	1265.43674651151	-1.0	1224.90842490842	
2015/06/23 15:51:19.525	6.18072289156627	-0.192771084337349	7.71084337349398	1266.16705402937	-1.0	1229.30402930403	
2015/06/23 15:51:19.532	6.1566265060241	-0.192771084337349	7.72289156626506	1266.16705402937	-1.0	1230.03663003663	
2015/06/23 15:51:19.540	6.1566265060241	-0.204819277108434	7.73493975903615	1266.89820498261	-1.0	1227.10622710623	
2015/06/23 15:51:19.548	6.13253012048193	-0.216867469879518	7.72289156626506	1266.16705402937	-1.0	1221.24542124542	
2015/06/23 15:51:19.556	6.14457831325301	-0.228915662650602	7.74698795180723	1265.43674651151	-1.0	1213.91941391941	
2015/06/23 15:51:19.564	6.1566265060241	-0.240963855421687	7.73493975903615	1265.43674651151	-1.0	1207.32600732601	
2015/06/23 15:51:19.571	6.14457831325301	-0.216867469879518	7.73493975903615	1265.43674651151	-1.0	1202.1978021978	
2015/06/23 15:51:19.579	6.14457831325301	-0.204819277108434	7.73493975903615	1266.16705402937	-1.0	1199.2673992674	
2015/06/23 15:51:19.587	6.1566265060241	-0.192771084337349	7.73493975903615	1265.43674651151	-1.0	1199.2673992674	
2015/06/23 15:51:19.595	6.16867469879518	-0.204819277108434	7.72289156626506	1265.43674651151	-1.0	1202.9304029304	
2015/06/23 15:51:19.603	6.1566265060241	-0.204819277108434	7.74698795180723	1265.43674651151	-1.0	1204.3956043956	
2015/06/23 15:51:19.611	6.14457831325301	-0.204819277108434	7.72289156626506	1264.70728097041	-1.0	1205.86080586081	
2015/06/23 15:51:19.618	6.14457831325301	-0.228915662650602	7.72289156626506	1266.16705402937	-1.0	1208.79120879121	
2015/06/23 15:51:19.626	6.1566265060241	-0.216867469879518	7.71084337349398	1265.43674651151	-1.0	1210.25641025641	
2015/06/23 15:51:19.634	6.18072289156627	-0.192771084337349	7.72289156626506	1265.43674651151	-1.0	1213.91941391941	
2015/06/23 15:51:19.642	6.18072289156627	-0.204819277108434	7.72289156626506	1265.43674651151	-1.0	1224.17582417582	
2015/06/23 15:51:19.650	6.18072289156627	-0.192771084337349	7.72289156626506	1265.43674651151	-1.0	1233.69963369963	
2015/06/23 15:51:19.657	6.18072289156627	-0.216867469879518	7.72289156626506	1265.43674651151	-1.0	1247.61904761905	
2015/06/23 15:51:19.665	6.20481927710843	-0.216867469879518	7.73493975903615	1266.16705402937	-1.0	1263.73626373626	
2015/06/23 15:51:19.673	6.18072289156627	-0.204819277108434	7.73493975903615	1264.70728097041	-1.0	1287.17948717949	
2015/06/23 15:51:19.681	6.1566265060241	-0.204819277108434	7.72289156626506	1266.16705402937	-1.0	1317.21611721612	
2015/06/23 15:51:19.689	6.14457831325301	-0.240963855421687	7.72289156626506	1265.43674651151	-1.0	1356.77655677656	
2015/06/23 15:51:19.696	6.13253012048193	-0.253012048192771	7.72289156626506	1266.16705402937	-1.0	1404.3956043956	
2015/06/23 15:51:19.704	6.1566265060241	-0.240963855421687	7.73493975903615	1265.43674651151	-1.0	1457.87545787546	
2015/06/23 15:51:19.712	6.18072289156627	-0.216867469879518	7.72289156626506	1266.16705402937	-1.0	1513.55311355311	
2015/06/23 15:51:19.720	6.1566265060241	-0.228915662650602	7.71084337349398	1266.16705402937	-1.0	1572.16117216117	
2015/06/23 15:51:19.728	6.16867469879518	-0.216867469879518	7.72289156626506	1266.16705402937	-1.0	1625.64102564103	
2015/06/23 15:51:19.736	6.18072289156627	-0.204819277108434	7.73493975903615	1266.16705402937	-1.0	1675.45787545788	
2015/06/23 15:51:19.743	6.20481927710843	-0.180722891566265	7.73493975903615	1266.16705402937	-1.0	1723.07692307692	
2015/06/23 15:51:19.751	6.18072289156627	-0.204819277108434	7.72289156626506	1265.43674651151	-1.0	1762.63736263736	
2015/06/23 15:51:19.759	6.16867469879518	-0.192771084337349	7.73493975903615	1266.16705402937	-1.0	1794.13919413919	
2015/06/23 15:51:19.767	6.1566265060241	-0.192771084337349	7.74698795180723	1266.16705402937	-1.0	1817.58241758242	
2015/06/23 15:51:19.775	6.1566265060241	-0.216867469879518	7.72289156626506	1266.16705402937	-1.0	1832.96703296703	
2015/06/23 15:51:19.782	6.14457831325301	-0.228915662650602	7.72289156626506	1265.43674651151	-1.0	1841.02564102564	
2015/06/23 15:51:19.790	6.14457831325301	-0.216867469879518	7.74698795180723	1265.43674651151	-1.0	1839.56043956044	
2015/06/23 15:51:19.798	6.13253012048193	-0.204819277108434	7.71084337349398	1266.16705402937	-1.0	1835.89743589744	
2015/06/23 15:51:19.806	6.14457831325301	-0.216867469879518	7.72289156626506	1265.43674651151	-1.0	1828.57142857143	
2015/06/23 15:51:19.814	6.1566265060241	-0.228915662650602	7.72289156626506	1265.43674651151	-1.0	1818.31501831502	
2015/06/23 15:51:19.821	6.20481927710843	-0.216867469879518	7.72289156626506	1266.16705402937	-1.0	1807.32600732601	
2015/06/23 15:51:19.829	6.19277108433735	-0.228915662650602	7.72289156626506	1265.43674651151	-1.0	1794.87179487179	
2015/06/23 15:51:19.837	6.1566265060241	-0.180722891566265	7.73493975903615	1266.16705402937	-1.0	1780.95238095238	
2015/06/23 15:51:19.845	6.13253012048193	-0.180722891566265	7.73493975903615	1265.43674651151	-1.0	1769.23076923077	
2015/06/23 15:51:19.853	6.13253012048193	-0.192771084337349	7.72289156626506	1266.16705402937	-1.0	1752.38095238095	
2015/06/23 15:51:19.861	6.14457831325301	-0.216867469879518	7.72289156626506	1266.16705402937	-1.0	1734.06593406593	
2015/06/23 15:51:19.868	6.14457831325301	-0.228915662650602	7.73493975903615	1266.16705402937	-1.0	1712.82051282051	
2015/06/23 15:51:19.876	6.13253012048193	-0.240963855421687	7.72289156626506	1266.16705402937	-1.0	1693.77289377289	
2015/06/23 15:51:19.884	6.18072289156627	-0.228915662650602	7.73493975903615	1266.16705402937	-1.0	1672.52747252747	
2015/06/23 15:51:19.892	6.18072289156627	-0.204819277108434	7.72289156626506	1266.16705402937	-1.0	1651.28205128205	
2015/06/23 15:51:19.900	6.18072289156627	-0.192771084337349	7.71084337349398	1266.16705402937	-1.0	1629.30402930403	
2015/06/23 15:51:19.907	6.19277108433735	-0.192771084337349	7.71084337349398	1266.16705402937	-1.0	1607.32600732601	
2015/06/23 15:51:19.915	6.20481927710843	-0.204819277108434	7.71084337349398	1266.16705402937	-1.0	1588.27838827839	
2015/06/23 15:51:19.923	6.20481927710843	-0.168674698795181	7.72289156626506	1266.16705402937	-1.0	1573.62637362637	
2015/06/23 15:51:19.931	6.18072289156627	-0.204819277108434	7.71084337349398	1266.16705402937	-1.0	1563.36996336996	
2015/06/23 15:51:19.939	6.1566265060241	-0.216867469879518	7.73493975903615	1265.43674651151	-1.0	1558.97435897436	
2015/06/23 15:51:19.946	6.13253012048193	-0.216867469879518	7.73493975903615	1266.16705402937	-1.0	1556.04395604396	
2015/06/23 15:51:19.954	6.10843373493976	-0.216867469879518	7.72289156626506	1265.43674651151	-1.0	1556.77655677656	
2015/06/23 15:51:19.962	6.12048192771084	-0.204819277108434	7.73493975903615	1266.89820498261	-1.0	1556.04395604396	
2015/06/23 15:51:19.970	6.14457831325301	-0.204819277108434	7.72289156626506	1266.16705402937	-1.0	1555.31135531136	
2015/06/23 15:51:19.978	6.1566265060241	-0.204819277108434	7.73493975903615	1266.89820498261	-1.0	1556.04395604396	
2015/06/23 15:51:19.986	6.16867469879518	-0.228915662650602	7.73493975903615	1265.43674651151	-1.0	1552.38095238095	
2015/06/23 15:51:19.993	6.14457831325301	-0.228915662650602	7.72289156626506	1266.16705402937	-1.0	1545.78754578755	
2015/06/23 15:51:20.001	6.1566265060241	-0.216867469879518	7.72289156626506	1266.89820498261	-1.0	1540.65934065934	
2015/06/23 15:51:20.009	6.16867469879518	-0.216867469879518	7.71084337349398	1266.16705402937	-1.0	1531.86813186813	
2015/06/23 15:51:20.017	6.18072289156627	-0.204819277108434	7.71084337349398	1266.89820498261	-1.0	1520.87912087912	
2015/06/23 15:51:20.025	6.18072289156627	-0.204819277108434	7.71084337349398	1266.89820498261	-1.0	1509.15750915751	
2015/06/23 15:51:20.032	6.18072289156627	-0.192771084337349	7.69879518072289	1266.16705402937	-1.0	1496.7032967033	
2015/06/23 15:51:20.040	6.18072289156627	-0.204819277108434	7.71084337349398	1266.89820498261	-1.0	1482.78388278388	
2015/06/23 15:51:20.048	6.16867469879518	-0.216867469879518	7.72289156626506	1266.16705402937	-1.0	1468.86446886447	
2015/06/23 15:51:20.056	6.18072289156627	-0.216867469879518	7.71084337349398	1266.16705402937	-1.0	1457.87545787546	
2015/06/23 15:51:20.064	6.16867469879518	-0.216867469879518	7.71084337349398	1266.16705402937	-1.0	1446.15384615385	
2015/06/23 15:51:20.071	6.18072289156627	-0.204819277108434	7.72289156626506	1266.16705402937	-1.0	1432.23443223443	
2015/06/23 15:51:20.079	6.18072289156627	-0.204819277108434	7.72289156626506	1266.89820498261	-1.0	1420.51282051282	
2015/06/23 15:51:20.087	6.18072289156627	-0.204819277108434	7.72289156626506	1266.16705402937	-1.0	1406.59340659341	
2015/06/23 15:51:20.095	6.18072289156627	-0.216867469879518	7.71084337349398	1266.16705402937	-1.0	1394.87179487179	
2015/06/23 15:51:20.103	6.16867469879518	-0.216867469879518	7.72289156626506	1266.89820498261	-1.0	1380.21978021978	
2015/06/23 15:51:20.111	6.1566265060241	-0.216867469879518	7.72289156626506	1266.89820498261	-1.0	1367.03296703297	
2015/06/23 15:51:20.118	6.16867469879518	-0.216867469879518	7.71084337349398	1266.89820498261	-1.0	1352.38095238095	
2015/06/23 15:51:20.126	6.18072289156627	-0.216867469879518	7.72289156626506	1266.16705402937	-1.0	1337.72893772894	
2015/06/23 15:51:20.134	6.16867469879518	-0.216867469879518	7.72289156626506	1266.16705402937	-1.0	1325.27472527473	
2015/06/23 15:51:20.142	6.18072289156627	-0.204819277108434	7.73493975903615	1266.89820498261	-1.0	1312.82051282051	
2015/06/23 15:51:20.150	6.19277108433735	-0.216867469879518	7.72289156626506	1266.89820498261	-1.0	1301.8315018315	
2015/06/23 15:51:20.157	6.16867469879518	-0.216867469879518	7.72289156626506	1266.16705402937	-1.0	1294.50549450549	
2015/06/23 15:51:20.165	6.1566265060241	-0.204819277108434	7.71084337349398	1266.89820498261	-1.0	1289.37728937729	
2015/06/23 15:51:20.173	6.18072289156627	-0.204819277108434	7.71084337349398	1266.16705402937	-1.0	1286.44688644689	
2015/06/23 15:51:20.181	6.16867469879518	-0.204819277108434	7.72289156626506	1267.63020083319	-1.0	1282.05128205128	
2015/06/23 15:51:20.189	6.18072289156627	-0.216867469879518	7.71084337349398	1267.63020083319	-1.0	1280.58608058608	
2015/06/23 15:51:20.196	6.18072289156627	-0.204819277108434	7.72289156626506	1267.63020083319	-1.0	1279.12087912088	
2015/06/23 15:51:20.204	6.18072289156627	-0.216867469879518	7.71084337349398	1266.89820498261	-1.0	1276.19047619048	
2015/06/23 15:51:20.212	6.16867469879518	-0.204819277108434	7.72289156626506	1267.63020083319	-1.0	1273.99267399267	
2015/06/23 15:51:20.220	6.16867469879518	-0.216867469879518	7.71084337349398	1266.89820498261	-1.0	1270.32967032967	
2015/06/23 15:51:20.228	6.16867469879518	-0.204819277108434	7.71084337349398	1266.89820498261	-1.0	1267.39926739927	
2015/06/23 15:51:20.236	6.1566265060241	-0.216867469879518	7.71084337349398	1266.89820498261	-1.0	1264.46886446886	
2015/06/23 15:51:20.243	6.18072289156627	-0.216867469879518	7.72289156626506	1267.63020083319	-1.0	1260.07326007326	
2015/06/23 15:51:20.251	6.1566265060241	-0.228915662650602	7.72289156626506	1266.89820498261	-1.0	1256.41025641026	
2015/06/23 15:51:20.259	6.1566265060241	-0.216867469879518	7.71084337349398	1267.63020083319	-1.0	1251.28205128205	
2015/06/23 15:51:20.267	6.1566265060241	-0.216867469879518	7.72289156626506	1267.63020083319	-1.0	1246.15384615385	
2015/06/23 15:51:20.275	6.1566265060241	-0.204819277108434	7.71084337349398	1266.89820498261	-1.0	1237.36263736264	
2015/06/23 15:51:20.282	6.18072289156627	-0.180722891566265	7.71084337349398	1266.89820498261	-1.0	1229.30402930403	
2015/06/23 15:51:20.290	6.1566265060241	-0.228915662650602	7.72289156626506	1266.89820498261	-1.0	1221.24542124542	
2015/06/23 15:51:20.298	6.19277108433735	-0.204819277108434	7.72289156626506	1267.63020083319	-1.0	1216.11721611722	
2015/06/23 15:51:20.306	6.18072289156627	-0.204819277108434	7.72289156626506	1267.63020083319	-1.0	1211.72161172161	
2015/06/23 15:51:20.314	6.16867469879518	-0.204819277108434	7.69879518072289	1266.89820498261	-1.0	1208.79120879121	
2015/06/23 15:51:20.321	6.18072289156627	-0.192771084337349	7.71084337349398	1267.63020083319	-1.0	1208.05860805861	
2015/06/23 15:51:20.329	6.18072289156627	-0.228915662650602	7.69879518072289	1266.89820498261	-1.0	1207.32600732601	
2015/06/23 15:51:20.337	6.19277108433735	-0.216867469879518	7.72289156626506	1267.63020083319	-1.0	1205.86080586081	
2015/06/23 15:51:20.345	6.16867469879518	-0.204819277108434	7.71084337349398	1267.63020083319	-1.0	1203.663003663	
2015/06/23 15:51:20.353	6.16867469879518	-0.216867469879518	7.72289156626506	1267.63020083319	-1.0	1205.12820512821	
2015/06/23 15:51:20.361	6.1566265060241	-0.228915662650602	7.72289156626506	1267.63020083319	-1.0	1205.86080586081	
2015/06/23 15:51:20.368	6.1566265060241	-0.192771084337349	7.74698795180723	1267.63020083319	-1.0	1205.86080586081	
2015/06/23 15:51:20.376	6.16867469879518	-0.216867469879518	7.71084337349398	1267.63020083319	-1.0	1207.32600732601	
2015/06/23 15:51:20.384	6.18072289156627	-0.204819277108434	7.71084337349398	1268.36304304647	-1.0	1207.32600732601	
2015/06/23 15:51:20.392	6.19277108433735	-0.204819277108434	7.71084337349398	1267.63020083319	-1.0	1206.59340659341	
2015/06/23 15:51:20.400	6.16867469879518	-0.204819277108434	7.69879518072289	1267.63020083319	-1.0	1205.12820512821	
2015/06/23 15:51:20.407	6.16867469879518	-0.192771084337349	7.69879518072289	1267.63020083319	-1.0	1205.12820512821	
2015/06/23 15:51:20.415	6.1566265060241	-0.216867469879518	7.72289156626506	1267.63020083319	-1.0	1203.663003663	
2015/06/23 15:51:20.423	6.18072289156627	-0.204819277108434	7.71084337349398	1268.36304304647	-1.0	1201.4652014652	
2015/06/23 15:51:20.431	6.1566265060241	-0.216867469879518	7.72289156626506	1267.63020083319	-1.0	1201.4652014652	
2015/06/23 15:51:20.439	6.16867469879518	-0.204819277108434	7.71084337349398	1267.63020083319	-1.0	1201.4652014652	
2015/06/23 15:51:20.446	6.16867469879518	-0.216867469879518	7.72289156626506	1267.63020083319	-1.0	1200.0	
2015/06/23 15:51:20.454	6.1566265060241	-0.216867469879518	7.72289156626506	1268.36304304647	-1.0	1200.7326007326	
2015/06/23 15:51:20.462	6.18072289156627	-0.204819277108434	7.73493975903615	1268.36304304647	-1.0	1201.4652014652	
2015/06/23 15:51:20.470	6.16867469879518	-0.216867469879518	7.71084337349398	1267.63020083319	-1.0	1204.3956043956	
2015/06/23 15:51:20.478	6.16867469879518	-0.204819277108434	7.69879518072289	1267.63020083319	-1.0	1206.59340659341	
2015/06/23 15:51:20.486	6.16867469879518	-0.216867469879518	7.71084337349398	1267.63020083319	-1.0	1211.72161172161	
2015/06/23 15:51:20.493	6.18072289156627	-0.228915662650602	7.72289156626506	1268.36304304647	-1.0	1215.38461538462	
2015/06/23 15:51:20.501	6.19277108433735	-0.216867469879518	7.72289156626506	1267.63020083319	-1.0	1219.78021978022	
2015/06/23 15:51:20.509	6.19277108433735	-0.228915662650602	7.72289156626506	1268.36304304647	-1.0	1224.17582417582	
2015/06/23 15:51:20.517	6.16867469879518	-0.216867469879518	7.71084337349398	1268.36304304647	-1.0	1229.30402930403	
2015/06/23 15:51:20.525	6.1566265060241	-0.192771084337349	7.72289156626506	1269.09673309119	-1.0	1232.96703296703	
2015/06/23 15:51:20.532	6.1566265060241	-0.216867469879518	7.72289156626506	1268.36304304647	-1.0	1235.16483516484	
2015/06/23 15:51:20.540	6.1566265060241	-0.192771084337349	7.72289156626506	1269.09673309119	-1.0	1237.36263736264	
2015/06/23 15:51:20.548	6.19277108433735	-0.192771084337349	7.69879518072289	1268.36304304647	-1.0	1236.63003663004	
2015/06/23 15:51:20.556	6.21686746987952	-0.204819277108434	7.71084337349398	1268.36304304647	-1.0	1235.89743589744	
2015/06/23 15:51:20.564	6.19277108433735	-0.204819277108434	7.69879518072289	1268.36304304647	-1.0	1232.96703296703	
2015/06/23 15:51:20.571	6.1566265060241	-0.192771084337349	7.72289156626506	1268.36304304647	-1.0	1231.50183150183	
2015/06/23 15:51:20.579	6.16867469879518	-0.204819277108434	7.72289156626506	1268.36304304647	-1.0	1227.10622710623	
2015/06/23 15:51:20.587	6.1566265060241	-0.216867469879518	7.74698795180723	1268.36304304647	-1.0	1223.44322344322	
2015/06/23 15:51:20.595	6.14457831325301	-0.228915662650602	7.72289156626506	1268.36304304647	-1.0	1220.51282051282	
2015/06/23 15:51:20.603	6.14457831325301	-0.216867469879518	7.72289156626506	1268.36304304647	-1.0	1219.78021978022	
2015/06/23 15:51:20.611	6.18072289156627	-0.228915662650602	7.71084337349398	1268.36304304647	-1.0	1219.78021978022	
2015/06/23 15:51:20.618	6.19277108433735	-0.204819277108434	7.67469879518072	1268.36304304647	-1.0	1221.97802197802	
2015/06/23 15:51:20.626	6.18072289156627	-0.204819277108434	7.74698795180723	1267.63020083319	-1.0	1222.71062271062	
2015/06/23 15:51:20.634	6.25301204819277	-0.228915662650602	7.74698795180723	1268.36304304647	-1.0	1221.97802197802	
2015/06/23 15:51:20.642	6.24096385542169	-0.204819277108434	7.68674698795181	1268.36304304647	-1.0	1220.51282051282	
2015/06/23 15:51:20.650	6.1566265060241	-0.216867469879518	7.75903614457831	1268.36304304647	-1.0	1220.51282051282	
2015/06/23 15:51:20.657	6.12048192771084	-0.192771084337349	7.72289156626506	1268.36304304647	-1.0	1219.78021978022	
2015/06/23 15:51:20.665	6.18072289156627	-0.204819277108434	7.71084337349398	1269.09673309119	-1.0	1219.78021978022	
2015/06/23 15:51:20.673	6.20481927710843	-0.204819277108434	7.67469879518072	1268.36304304647	-1.0	1220.51282051282	
2015/06/23 15:51:20.681	6.16867469879518	-0.192771084337349	7.67469879518072	1269.09673309119	-1.0	1222.71062271062	
2015/06/23 15:51:20.689	6.12048192771084	-0.216867469879518	7.67469879518072	1268.36304304647	-1.0	1226.37362637363	
2015/06/23 15:51:20.696	6.14457831325301	-0.228915662650602	7.73493975903615	1269.09673309119	-1.0	1231.50183150183	
2015/06/23 15:51:20.704	6.21686746987952	-0.216867469879518	7.75903614457831	1269.09673309119	-1.0	1242.49084249084	
2015/06/23 15:51:20.712	6.19277108433735	-0.216867469879518	7.72289156626506	1268.36304304647	-1.0	1262.27106227106	
2015/06/23 15:51:20.720	6.14457831325301	-0.204819277108434	7.74698795180723	1268.36304304647	-1.0	1288.64468864469	
2015/06/23 15:51:20.728	6.13253012048193	-0.192771084337349	7.69879518072289	1269.09673309119	-1.0	1322.34432234432	
2015/06/23 15:51:20.736	6.16867469879518	-0.204819277108434	7.69879518072289	1269.09673309119	-1.0	1361.17216117216	
2015/06/23 15:51:20.743	6.20481927710843	-0.240963855421687	7.71084337349398	1269.09673309119	-1.0	1406.59340659341	
2015/06/23 15:51:20.751	6.19277108433735	-0.253012048192771	7.68674698795181	1268.36304304647	-1.0	1459.34065934066	
2015/06/23 15:51:20.759	6.1566265060241	-0.240963855421687	7.69879518072289	1269.83127243951	-1.0	1515.01831501832	
2015/06/23 15:51:20.767	6.14457831325301	-0.228915662650602	7.71084337349398	1269.09673309119	-1.0	1570.69597069597	
2015/06/23 15:51:20.775	6.18072289156627	-0.216867469879518	7.72289156626506	1269.09673309119	-1.0	1621.97802197802	
2015/06/23 15:51:20.782	6.2289156626506	-0.216867469879518	7.72289156626506	1269.09673309119	-1.0	1670.32967032967	
2015/06/23 15:51:20.790	6.24096385542169	-0.216867469879518	7.73493975903615	1269.09673309119	-1.0	1711.35531135531	
2015/06/23 15:51:20.798	6.16867469879518	-0.192771084337349	7.73493975903615	1269.09673309119	-1.0	1743.58974358974	
2015/06/23 15:51:20.806	6.20481927710843	-0.192771084337349	7.69879518072289	1269.09673309119	-1.0	1765.56776556777	
2015/06/23 15:51:20.814	6.1566265060241	-0.192771084337349	7.71084337349398	1268.36304304647	-1.0	1778.75457875458	
2015/06/23 15:51:20.821	6.16867469879518	-0.216867469879518	7.71084337349398	1269.09673309119	-1.0	1783.15018315018	
2015/06/23 15:51:20.829	6.1566265060241	-0.228915662650602	7.72289156626506	1268.36304304647	59.0769230769231	1780.95238095238	
2015/06/23 15:51:20.837	6.12048192771084	-0.228915662650602	7.72289156626506	1269.09673309119	59.0769230769231	1773.62637362637	
2015/06/23 15:51:20.845	6.12048192771084	-0.240963855421687	7.69879518072289	1269.09673309119	59.0769230769231	1761.17216117216	
2015/06/23 15:51:20.853	6.14457831325301	-0.216867469879518	7.72289156626506	1269.09673309119	59.0769230769231	1745.05494505494	
2015/06/23 15:51:20.861	6.21686746987952	-0.228915662650602	7.72289156626506	1269.83127243951	59.0769230769231	1727.47252747253	
2015/06/23 15:51:20.868	6.21686746987952	-0.204819277108434	7.69879518072289	1269.83127243951	59.0769230769231	1706.95970695971	
2015/06/23 15:51:20.876	6.19277108433735	-0.216867469879518	7.72289156626506	1269.09673309119	59.0769230769231	1684.24908424908	
2015/06/23 15:51:20.884	6.1566265060241	-0.204819277108434	7.73493975903615	1269.09673309119	59.0769230769231	1660.07326007326	
2015/06/23 15:51:20.892	6.12048192771084	-0.216867469879518	7.72289156626506	1268.36304304647	59.0769230769231	1634.43223443223	
2015/06/23 15:51:20.900	6.12048192771084	-0.204819277108434	7.73493975903615	1269.83127243951	59.0769230769231	1608.79120879121	
2015/06/23 15:51:20.907	6.14457831325301	-0.216867469879518	7.72289156626506	1269.09673309119	59.0769230769231	1586.81318681319	
2015/06/23 15:51:20.915	6.18072289156627	-0.216867469879518	7.71084337349398	1269.09673309119	59.0769230769231	1564.83516483516	
2015/06/23 15:51:20.923	6.18072289156627	-0.216867469879518	7.71084337349398	1269.83127243951	59.0769230769231	1544.32234432234	
2015/06/23 15:51:20.931	6.20481927710843	-0.216867469879518	7.69879518072289	1269.09673309119	59.0769230769231	1530.40293040293	
2015/06/23 15:51:20.939	6.24096385542169	-0.204819277108434	7.69879518072289	1269.09673309119	59.0769230769231	1519.41391941392	
2015/06/23 15:51:20.946	6.24096385542169	-0.192771084337349	7.69879518072289	1269.09673309119	59.0769230769231	1508.42490842491	
2015/06/23 15:51:20.954	6.20481927710843	-0.180722891566265	7.72289156626506	1269.09673309119	59.0769230769231	1501.0989010989	
2015/06/23 15:51:20.962	6.1566265060241	-0.180722891566265	7.72289156626506	1269.83127243951	59.0769230769231	1495.9706959707	
2015/06/23 15:51:20.970	6.13253012048193	-0.216867469879518	7.72289156626506	1269.09673309119	59.0769230769231	1496.7032967033	
2015/06/23 15:51:20.978	6.10843373493976	-0.204819277108434	7.72289156626506	1269.83127243951	59.0769230769231	1500.3663003663	
2015/06/23 15:51:20.986	6.14457831325301	-0.228915662650602	7.73493975903615	1269.83127243951	59.0769230769231	1506.22710622711	
2015/06/23 15:51:20.993	6.13253012048193	-0.228915662650602	7.71084337349398	1269.83127243951	59.0769230769231	1512.82051282051	
2015/06/23 15:51:21.001	6.14457831325301	-0.228915662650602	7.72289156626506	1269.83127243951	59.0769230769231	1520.87912087912	
2015/06/23 15:51:21.009	6.16867469879518	-0.216867469879518	7.69879518072289	1269.83127243951	59.0769230769231	1526.73992673993	
2015/06/23 15:51:21.017	6.1566265060241	-0.228915662650602	7.72289156626506	1269.83127243951	59.0769230769231	1528.20512820513	
2015/06/23 15:51:21.025	6.18072289156627	-0.228915662650602	7.72289156626506	1269.83127243951	59.0769230769231	1532.60073260073	
2015/06/23 15:51:21.032	6.19277108433735	-0.204819277108434	7.72289156626506	1269.09673309119	59.0769230769231	1530.40293040293	
2015/06/23 15:51:21.040	6.19277108433735	-0.228915662650602	7.72289156626506	1269.83127243951	59.0769230769231	1522.34432234432	
2015/06/23 15:51:21.048	6.16867469879518	-0.204819277108434	7.72289156626506	1269.83127243951	59.0769230769231	1510.62271062271	
2015/06/23 15:51:21.056	6.16867469879518	-0.204819277108434	7.72289156626506	1269.83127243951	59.0769230769231	1495.9706959707	
2015/06/23 15:51:21.064	6.18072289156627	-0.204819277108434	7.71084337349398	1269.83127243951	59.0769230769231	1479.85347985348	
2015/06/23 15:51:21.071	6.20481927710843	-0.204819277108434	7.72289156626506	1269.83127243951	59.0769230769231	1463.73626373626	
2015/06/23 15:51:21.079	6.20481927710843	-0.216867469879518	7.71084337349398	1269.83127243951	59.0769230769231	1448.35164835165	
2015/06/23 15:51:21.087	6.20481927710843	-0.216867469879518	7.72289156626506	1269.83127243951	59.0769230769231	1430.03663003663	
2015/06/23 15:51:21.095	6.18072289156627	-0.204819277108434	7.71084337349398	1269.83127243951	59.0769230769231	1413.91941391941	
2015/06/23 15:51:21.103	6.19277108433735	-0.204819277108434	7.69879518072289	1269.83127243951	59.0769230769231	1397.8021978022	
2015/06/23 15:51:21.111	6.1566265060241	-0.216867469879518	7.72289156626506	1270.56666256697	59.0769230769231	1384.61538461538	
2015/06/23 15:51:21.118	6.1566265060241	-0.204819277108434	7.72289156626506	1270.56666256697	59.0769230769231	1372.89377289377	
2015/06/23 15:51:21.126	6.1566265060241	-0.216867469879518	7.71084337349398	1269.83127243951	59.0769230769231	1361.90476190476	
2015/06/23 15:51:21.134	6.16867469879518	-0.216867469879518	7.72289156626506	1269.83127243951	59.0769230769231	1350.18315018315	
2015/06/23 15:51:21.142	6.20481927710843	-0.192771084337349	7.73493975903615	1270.56666256697	59.0769230769231	1341.39194139194	
2015/06/23 15:51:21.150	6.19277108433735	-0.204819277108434	7.71084337349398	1269.83127243951	59.0769230769231	1333.33333333333	
2015/06/23 15:51:21.157	6.19277108433735	-0.216867469879518	7.71084337349398	1269.83127243951	59.0769230769231	1326.73992673993	
2015/06/23 15:51:21.165	6.18072289156627	-0.204819277108434	7.69879518072289	1269.83127243951	59.0769230769231	1320.14652014652	
2015/06/23 15:51:21.173	6.19277108433735	-0.192771084337349	7.72289156626506	1270.56666256697	59.0769230769231	1311.35531135531	
2015/06/23 15:51:21.181	6.16867469879518	-0.204819277108434	7.71084337349398	1270.56666256697	59.0769230769231	1296.7032967033	
2015/06/23 15:51:21.189	6.16867469879518	-0.216867469879518	7.71084337349398	1269.83127243951	59.0769230769231	1282.78388278388	
2015/06/23 15:51:21.196	6.18072289156627	-0.204819277108434	7.72289156626506	1270.56666256697	59.0769230769231	1266.66666666667	
2015/06/23 15:51:21.204	6.16867469879518	-0.216867469879518	7.72289156626506	1269.83127243951	59.0769230769231	1253.47985347985	
2015/06/23 15:51:21.212	6.20481927710843	-0.216867469879518	7.72289156626506	1270.56666256697	59.0769230769231	1241.75824175824	
2015/06/23 15:51:21.220	6.19277108433735	-0.216867469879518	7.69879518072289	1270.56666256697	59.0769230769231	1231.50183150183	
2015/06/23 15:51:21.228	6.18072289156627	-0.204819277108434	7.69879518072289	1270.56666256697	59.0769230769231	1223.44322344322	
2015/06/23 15:51:21.236	6.18072289156627	-0.216867469879518	7.72289156626506	1270.56666256697	59.0769230769231	1218.31501831502	
2015/06/23 15:51:21.243	6.18072289156627	-0.204819277108434	7.71084337349398	1270.56666256697	59.0769230769231	1213.18681318681	
2015/06/23 15:51:21.251	6.19277108433735	-0.204819277108434	7.71084337349398	1269.83127243951	59.0769230769231	1210.25641025641	
2015/06/23 15:51:21.259	6.1566265060241	-0.204819277108434	7.69879518072289	1270.56666256697	59.0769230769231	1208.79120879121	
2015/06/23 15:51:21.267	6.1566265060241	-0.192771084337349	7.72289156626506	1270.56666256697	59.0769230769231	1208.05860805861	
2015/06/23 15:51:21.275	6.1566265060241	-0.216867469879518	7.73493975903615	1270.56666256697	59.0769230769231	1207.32600732601	
2015/06/23 15:51:21.282	6.20481927710843	-0.204819277108434	7.72289156626506	1270.56666256697	59.0769230769231	1210.25641025641	
2015/06/23 15:51:21.290	6.20481927710843	-0.216867469879518	7.72289156626506	1270.56666256697	59.0769230769231	1214.65201465201	
2015/06/23 15:51:21.298	6.19277108433735	-0.216867469879518	7.72289156626506	1270.56666256697	59.0769230769231	1217.58241758242	
2015/06/23 15:51:21.306	6.16867469879518	-0.204819277108434	7.71084337349398	1271.30290495256	59.0769230769231	1224.90842490842	
2015/06/23 15:51:21.314	6.16867469879518	-0.204819277108434	7.72289156626506	1270.56666256697	59.0769230769231	1230.76923076923	
2015/06/23 15:51:21.321	6.16867469879518	-0.204819277108434	7.71084337349398	1271.30290495256	59.0769230769231	1235.16483516484	
2015/06/23 15:51:21.329	6.16867469879518	-0.192771084337349	7.72289156626506	1270.56666256697	59.0769230769231	1238.82783882784	
2015/06/23 15:51:21.337	6.14457831325301	-0.204819277108434	7.72289156626506	1271.30290495256	59.0769230769231	1240.29304029304	
2015/06/23 15:51:21.345	6.1566265060241	-0.228915662650602	7.72289156626506	1270.56666256697	59.0769230769231	1241.02564102564	
2015/06/23 15:51:21.353	6.18072289156627	-0.204819277108434	7.71084337349398	1270.56666256697	59.0769230769231	1241.75824175824	
2015/06/23 15:51:21.361	6.16867469879518	-0.204819277108434	7.71084337349398	1271.30290495256	59.0769230769231	1241.02564102564	
2015/06/23 15:51:21.368	6.18072289156627	-0.204819277108434	7.72289156626506	1271.30290495256	59.0769230769231	1238.82783882784	
2015/06/23 15:51:21.376	6.18072289156627	-0.204819277108434	7.72289156626506	1270.56666256697	59.0769230769231	1238.09523809524	
2015/06/23 15:51:21.384	6.18072289156627	-0.204819277108434	7.73493975903615	1270.56666256697	59.0769230769231	1235.89743589744	
2015/06/23 15:51:21.392	6.18072289156627	-0.216867469879518	7.72289156626506	1271.30290495256	59.0769230769231	1234.43223443223	
2015/06/23 15:51:21.400	6.1566265060241	-0.192771084337349	7.72289156626506	1271.30290495256	59.0769230769231	1233.69963369963	
2015/06/23 15:51:21.407	6.14457831325301	-0.216867469879518	7.72289156626506	1270.56666256697	59.0769230769231	1235.16483516484	
2015/06/23 15:51:21.415	6.1566265060241	-0.204819277108434	7.72289156626506	1270.56666256697	59.0769230769231	1234.43223443223	
2015/06/23 15:51:21.423	6.1566265060241	-0.216867469879518	7.71084337349398	1270.56666256697	59.0769230769231	1232.96703296703	
2015/06/23 15:51:21.431	6.16867469879518	-0.216867469879518	7.73493975903615	1271.30290495256	59.0769230769231	1230.76923076923	
2015/06/23 15:51:21.439	6.1566265060241	-0.204819277108434	7.74698795180723	1270.56666256697	59.0769230769231	1228.57142857143	
2015/06/23 15:51:21.446	6.1566265060241	-0.216867469879518	7.74698795180723	1271.30290495256	59.0769230769231	1227.10622710623	
2015/06/23 15:51:21.454	6.1566265060241	-0.192771084337349	7.74698795180723	1270.56666256697	59.0769230769231	1224.90842490842	
2015/06/23 15:51:21.462	6.14457831325301	-0.204819277108434	7.72289156626506	1272.04000107869	59.0769230769231	1222.71062271062	
2015/06/23 15:51:21.470	6.13253012048193	-0.204819277108434	7.73493975903615	1271.30290495256	59.0769230769231	1220.51282051282	
2015/06/23 15:51:21.478	6.1566265060241	-0.204819277108434	7.72289156626506	1271.30290495256	59.0769230769231	1217.58241758242	
2015/06/23 15:51:21.486	6.16867469879518	-0.216867469879518	7.71084337349398	1271.30290495256	59.0769230769231	1217.58241758242	
2015/06/23 15:51:21.493	6.18072289156627	-0.216867469879518	7.71084337349398	1270.56666256697	59.0769230769231	1216.11721611722	
2015/06/23 15:51:21.501	6.19277108433735	-0.216867469879518	7.73493975903615	1271.30290495256	59.0769230769231	1215.38461538462	
2015/06/23 15:51:21.509	6.18072289156627	-0.204819277108434	7.73493975903615	1271.30290495256	59.0769230769231	1215.38461538462	
2015/06/23 15:51:21.517	6.1566265060241	-0.192771084337349	7.74698795180723	1271.30290495256	59.0769230769231	1217.58241758242	
2015/06/23 15:51:21.525	6.1566265060241	-0.192771084337349	7.73493975903615	1271.30290495256	59.0769230769231	1221.97802197802	
2015/06/23 15:51:21.532	6.1566265060241	-0.204819277108434	7.71084337349398	1271.30290495256	59.0769230769231	1224.90842490842	
2015/06/23 15:51:21.540	6.18072289156627	-0.192771084337349	7.72289156626506	1272.04000107869	59.0769230769231	1229.30402930403	
2015/06/23 15:51:21.548	6.19277108433735	-0.192771084337349	7.71084337349398	1272.04000107869	59.0769230769231	1233.69963369963	
2015/06/23 15:51:21.556	6.18072289156627	-0.204819277108434	7.73493975903615	1271.30290495256	59.0769230769231	1236.63003663004	
2015/06/23 15:51:21.564	6.18072289156627	-0.216867469879518	7.72289156626506	1271.30290495256	59.0769230769231	1240.29304029304	
2015/06/23 15:51:21.571	6.18072289156627	-0.216867469879518	7.73493975903615	1271.30290495256	59.0769230769231	1242.49084249084	
2015/06/23 15:51:21.579	6.14457831325301	-0.204819277108434	7.73493975903615	1272.04000107869	59.0769230769231	1242.49084249084	
2015/06/23 15:51:21.587	6.14457831325301	-0.216867469879518	7.73493975903615	1271.30290495256	59.0769230769231	1243.22344322344	
2015/06/23 15:51:21.595	6.14457831325301	-0.228915662650602	7.73493975903615	1271.30290495256	59.0769230769231	1241.75824175824	
2015/06/23 15:51:21.603	6.18072289156627	-0.204819277108434	7.71084337349398	1271.30290495256	59.0769230769231	1239.56043956044	
2015/06/23 15:51:21.611	6.18072289156627	-0.192771084337349	7.71084337349398	1271.30290495256	59.0769230769231	1239.56043956044	
2015/06/23 15:51:21.618	6.18072289156627	-0.192771084337349	7.73493975903615	1272.04000107869	59.0769230769231	1238.09523809524	
2015/06/23 15:51:21.626	6.1566265060241	-0.192771084337349	7.73493975903615	1271.30290495256	59.0769230769231	1236.63003663004	
2015/06/23 15:51:21.634	6.1566265060241	-0.216867469879518	7.73493975903615	1271.30290495256	59.0769230769231	1235.89743589744	
2015/06/23 15:51:21.642	6.1566265060241	-0.228915662650602	7.73493975903615	1272.04000107869	59.0769230769231	1232.96703296703	
2015/06/23 15:51:21.650	6.16867469879518	-0.228915662650602	7.72289156626506	1271.30290495256	59.0769230769231	1232.23443223443	
2015/06/23 15:51:21.657	6.18072289156627	-0.204819277108434	7.72289156626506	1272.04000107869	59.0769230769231	1233.69963369963	
2015/06/23 15:51:21.665	6.18072289156627	-0.192771084337349	7.72289156626506	1271.30290495256	59.0769230769231	1233.69963369963	
2015/06/23 15:51:21.673	6.20481927710843	-0.180722891566265	7.72289156626506	1272.04000107869	59.0769230769231	1237.36263736264	
2015/06/23 15:51:21.681	6.19277108433735	-0.192771084337349	7.71084337349398	1272.04000107869	59.0769230769231	1244.68864468864	
2015/06/23 15:51:21.689	6.16867469879518	-0.204819277108434	7.71084337349398	1271.30290495256	59.0769230769231	1257.87545787546	
2015/06/23 15:51:21.696	6.19277108433735	-0.204819277108434	7.72289156626506	1272.04000107869	59.0769230769231	1276.19047619048	
2015/06/23 15:51:21.704	6.14457831325301	-0.204819277108434	7.72289156626506	1272.04000107869	59.0769230769231	1301.8315018315	
2015/06/23 15:51:21.712	6.1566265060241	-0.216867469879518	7.73493975903615	1272.04000107869	59.0769230769231	1334.06593406593	
2015/06/23 15:51:21.720	6.14457831325301	-0.216867469879518	7.72289156626506	1272.04000107869	59.0769230769231	1371.42857142857	
2015/06/23 15:51:21.728	6.14457831325301	-0.204819277108434	7.72289156626506	1272.04000107869	59.0769230769231	1414.65201465201	
2015/06/23 15:51:21.736	6.1566265060241	-0.216867469879518	7.71084337349398	1272.04000107869	59.0769230769231	1462.27106227106	
2015/06/23 15:51:21.743	6.16867469879518	-0.204819277108434	7.72289156626506	1272.7779524312	59.0769230769231	1513.55311355311	
2015/06/23 15:51:21.751	6.16867469879518	-0.216867469879518	7.73493975903615	1271.30290495256	59.0769230769231	1569.23076923077	
2015/06/23 15:51:21.759	6.16867469879518	-0.216867469879518	7.73493975903615	1272.7779524312	59.0769230769231	1621.97802197802	
2015/06/23 15:51:21.767	6.16867469879518	-0.216867469879518	7.73493975903615	1272.7779524312	59.0769230769231	1670.32967032967	
2015/06/23 15:51:21.775	6.19277108433735	-0.204819277108434	7.73493975903615	1272.04000107869	59.0769230769231	1714.28571428571	
2015/06/23 15:51:21.782	6.16867469879518	-0.192771084337349	7.72289156626506	1272.04000107869	59.0769230769231	1750.18315018315	
2015/06/23 15:51:21.790	6.18072289156627	-0.192771084337349	7.71084337349398	1272.04000107869	59.0769230769231	1777.28937728938	
2015/06/23 15:51:21.798	6.1566265060241	-0.180722891566265	7.73493975903615	1272.04000107869	59.0769230769231	1798.5347985348	
2015/06/23 15:51:21.806	6.19277108433735	-0.192771084337349	7.72289156626506	1272.7779524312	59.0769230769231	1810.25641025641	
2015/06/23 15:51:21.814	6.18072289156627	-0.216867469879518	7.72289156626506	1271.30290495256	59.0769230769231	1817.58241758242	
2015/06/23 15:51:21.821	6.1566265060241	-0.192771084337349	7.72289156626506	1272.04000107869	57.7443609022556	1817.58241758242	
2015/06/23 15:51:21.829	6.14457831325301	-0.216867469879518	7.72289156626506	1271.30290495256	57.7443609022556	1813.18681318681	
2015/06/23 15:51:21.837	6.14457831325301	-0.228915662650602	7.72289156626506	1272.7779524312	57.7443609022556	1803.663003663	
2015/06/23 15:51:21.845	6.14457831325301	-0.228915662650602	7.73493975903615	1272.7779524312	57.7443609022556	1794.13919413919	
2015/06/23 15:51:21.853	6.1566265060241	-0.204819277108434	7.71084337349398	1272.04000107869	57.7443609022556	1785.34798534799	
2015/06/23 15:51:21.861	6.18072289156627	-0.180722891566265	7.71084337349398	1272.7779524312	57.7443609022556	1773.62637362637	
2015/06/23 15:51:21.868	6.19277108433735	-0.180722891566265	7.72289156626506	1272.04000107869	57.7443609022556	1760.43956043956	
2015/06/23 15:51:21.876	6.1566265060241	-0.192771084337349	7.72289156626506	1272.7779524312	57.7443609022556	1742.12454212454	
2015/06/23 15:51:21.884	6.13253012048193	-0.204819277108434	7.73493975903615	1272.7779524312	57.7443609022556	1720.14652014652	
2015/06/23 15:51:21.892	6.10843373493976	-0.204819277108434	7.73493975903615	1272.7779524312	57.7443609022556	1698.1684981685	
2015/06/23 15:51:21.900	6.13253012048193	-0.204819277108434	7.74698795180723	1272.7779524312	57.7443609022556	1674.72527472527	
2015/06/23 15:51:21.907	6.12048192771084	-0.228915662650602	7.74698795180723	1272.04000107869	57.7443609022556	1651.28205128205	
2015/06/23 15:51:21.915	6.1566265060241	-0.216867469879518	7.72289156626506	1272.7779524312	57.7443609022556	1630.76923076923	
2015/06/23 15:51:21.923	6.16867469879518	-0.204819277108434	7.72289156626506	1272.7779524312	57.7443609022556	1610.98901098901	
2015/06/23 15:51:21.931	6.21686746987952	-0.204819277108434	7.72289156626506	1272.04000107869	57.7443609022556	1594.13919413919	
2015/06/23 15:51:21.939	6.21686746987952	-0.192771084337349	7.71084337349398	1272.04000107869	57.7443609022556	1581.68498168498	
2015/06/23 15:51:21.946	6.21686746987952	-0.180722891566265	7.71084337349398	1272.04000107869	57.7443609022556	1570.69597069597	
2015/06/23 15:51:21.954	6.20481927710843	-0.192771084337349	7.71084337349398	1272.04000107869	57.7443609022556	1561.17216117216	
2015/06/23 15:51:21.962	6.16867469879518	-0.192771084337349	7.72289156626506	1272.7779524312	57.7443609022556	1553.11355311355	
2015/06/23 15:51:21.970	6.1566265060241	-0.192771084337349	7.72289156626506	1272.04000107869	57.7443609022556	1547.98534798535	
2015/06/23 15:51:21.978	6.13253012048193	-0.204819277108434	7.74698795180723	1272.7779524312	57.7443609022556	1543.58974358974	
2015/06/23 15:51:21.986	6.13253012048193	-0.204819277108434	7.72289156626506	1272.04000107869	57.7443609022556	1542.12454212454	
2015/06/23 15:51:21.993	6.12048192771084	-0.228915662650602	7.72289156626506	1272.7779524312	57.7443609022556	1542.85714285714	
2015/06/23 15:51:22.001	6.12048192771084	-0.216867469879518	7.72289156626506	1272.7779524312	57.7443609022556	1543.58974358974	
2015/06/23 15:51:22.009	6.14457831325301	-0.204819277108434	7.72289156626506	1272.04000107869	57.7443609022556	1544.32234432234	
2015/06/23 15:51:22.017	6.18072289156627	-0.204819277108434	7.69879518072289	1272.7779524312	57.7443609022556	1546.52014652015	
2015/06/23 15:51:22.025	6.19277108433735	-0.192771084337349	7.72289156626506	1272.7779524312	57.7443609022556	1547.98534798535	
2015/06/23 15:51:22.032	6.18072289156627	-0.204819277108434	7.72289156626506	1272.7779524312	57.7443609022556	1547.98534798535	
2015/06/23 15:51:22.040	6.16867469879518	-0.192771084337349	7.72289156626506	1272.7779524312	57.7443609022556	1545.05494505495	
2015/06/23 15:51:22.048	6.1566265060241	-0.192771084337349	7.73493975903615	1272.7779524312	57.7443609022556	1540.65934065934	
2015/06/23 15:51:22.056	6.1566265060241	-0.204819277108434	7.73493975903615	1272.7779524312	57.7443609022556	1531.86813186813	
2015/06/23 15:51:22.064	6.1566265060241	-0.204819277108434	7.72289156626506	1272.7779524312	57.7443609022556	1519.41391941392	
2015/06/23 15:51:22.071	6.16867469879518	-0.216867469879518	7.72289156626506	1272.7779524312	57.7443609022556	1503.2967032967	
2015/06/23 15:51:22.079	6.16867469879518	-0.204819277108434	7.72289156626506	1272.7779524312	57.7443609022556	1487.91208791209	
2015/06/23 15:51:22.087	6.19277108433735	-0.216867469879518	7.72289156626506	1272.7779524312	57.7443609022556	1471.06227106227	
2015/06/23 15:51:22.095	6.19277108433735	-0.204819277108434	7.71084337349398	1272.7779524312	57.7443609022556	1452.01465201465	
2015/06/23 15:51:22.103	6.16867469879518	-0.216867469879518	7.69879518072289	1272.7779524312	57.7443609022556	1432.23443223443	
2015/06/23 15:51:22.111	6.16867469879518	-0.216867469879518	7.72289156626506	1272.7779524312	57.7443609022556	1410.25641025641	
2015/06/23 15:51:22.118	6.16867469879518	-0.204819277108434	7.72289156626506	1273.51676049938	57.7443609022556	1389.01098901099	
2015/06/23 15:51:22.126	6.14457831325301	-0.192771084337349	7.73493975903615	1272.7779524312	57.7443609022556	1368.49816849817	
2015/06/23 15:51:22.134	6.16867469879518	-0.216867469879518	7.73493975903615	1272.04000107869	57.7443609022556	1348.71794871795	
2015/06/23 15:51:22.142	6.18072289156627	-0.204819277108434	7.72289156626506	1272.7779524312	57.7443609022556	1330.40293040293	
2015/06/23 15:51:22.150	6.16867469879518	-0.204819277108434	7.72289156626506	1272.7779524312	57.7443609022556	1316.48351648352	
2015/06/23 15:51:22.157	6.18072289156627	-0.204819277108434	7.71084337349398	1273.51676049938	57.7443609022556	1306.22710622711	
2015/06/23 15:51:22.165	6.16867469879518	-0.216867469879518	7.72289156626506	1273.51676049938	57.7443609022556	1297.4358974359	
2015/06/23 15:51:22.173	6.16867469879518	-0.216867469879518	7.72289156626506	1272.7779524312	57.7443609022556	1292.30769230769	
2015/06/23 15:51:22.181	6.18072289156627	-0.192771084337349	7.73493975903615	1273.51676049938	57.7443609022556	1286.44688644689	
2015/06/23 15:51:22.189	6.1566265060241	-0.204819277108434	7.72289156626506	1272.7779524312	57.7443609022556	1282.05128205128	
2015/06/23 15:51:22.196	6.16867469879518	-0.228915662650602	7.73493975903615	1272.7779524312	57.7443609022556	1277.65567765568	
2015/06/23 15:51:22.204	6.18072289156627	-0.204819277108434	7.72289156626506	1273.51676049938	57.7443609022556	1273.26007326007	
2015/06/23 15:51:22.212	6.16867469879518	-0.204819277108434	7.72289156626506	1272.7779524312	57.7443609022556	1269.59706959707	
2015/06/23 15:51:22.220	6.16867469879518	-0.204819277108434	7.73493975903615	1272.7779524312	57.7443609022556	1266.66666666667	
2015/06/23 15:51:22.228	6.16867469879518	-0.204819277108434	7.73493975903615	1272.7779524312	57.7443609022556	1263.00366300366	
2015/06/23 15:51:22.236	6.16867469879518	-0.216867469879518	7.72289156626506	1272.7779524312	57.7443609022556	1258.60805860806	
2015/06/23 15:51:22.243	6.1566265060241	-0.216867469879518	7.73493975903615	1273.51676049938	57.7443609022556	1256.41025641026	
2015/06/23 15:51:22.251	6.14457831325301	-0.192771084337349	7.73493975903615	1272.7779524312	57.7443609022556	1257.14285714286	
2015/06/23 15:51:22.259	6.1566265060241	-0.192771084337349	7.73493975903615	1273.51676049938	57.7443609022556	1254.94505494506	
2015/06/23 15:51:22.267	6.18072289156627	-0.192771084337349	7.69879518072289	1273.51676049938	57.7443609022556	1249.08424908425	
2015/06/23 15:51:22.275	6.16867469879518	-0.204819277108434	7.72289156626506	1273.51676049938	57.7443609022556	1242.49084249084	
2015/06/23 15:51:22.282	6.1566265060241	-0.192771084337349	7.73493975903615	1273.51676049938	57.7443609022556	1236.63003663004	
2015/06/23 15:51:22.290	6.1566265060241	-0.204819277108434	7.73493975903615	1272.7779524312	57.7443609022556	1230.76923076923	
2015/06/23 15:51:22.298	6.18072289156627	-0.192771084337349	7.73493975903615	1273.51676049938	57.7443609022556	1226.37362637363	
2015/06/23 15:51:22.306	6.18072289156627	-0.192771084337349	7.71084337349398	1272.7779524312	57.7443609022556	1221.24542124542	
2015/06/23 15:51:22.314	6.16867469879518	-0.192771084337349	7.72289156626506	1272.7779524312	57.7443609022556	1218.31501831502	
2015/06/23 15:51:22.321	6.16867469879518	-0.228915662650602	7.73493975903615	1273.51676049938	57.7443609022556	1217.58241758242	
2015/06/23 15:51:22.329	6.16867469879518	-0.204819277108434	7.73493975903615	1273.51676049938	57.7443609022556	1218.31501831502	
2015/06/23 15:51:22.337	6.18072289156627	-0.216867469879518	7.73493975903615	1273.51676049938	57.7443609022556	1220.51282051282	
2015/06/23 15:51:22.345	6.1566265060241	-0.204819277108434	7.72289156626506	1273.51676049938	57.7443609022556	1223.44322344322	
2015/06/23 15:51:22.353	6.1566265060241	-0.204819277108434	7.72289156626506	1273.51676049938	57.7443609022556	1224.90842490842	
2015/06/23 15:51:22.361	6.16867469879518	-0.216867469879518	7.72289156626506	1274.256426776	57.7443609022556	1225.64102564103	
2015/06/23 15:51:22.368	6.18072289156627	-0.204819277108434	7.72289156626506	1273.51676049938	57.7443609022556	1225.64102564103	
2015/06/23 15:51:22.376	6.19277108433735	-0.216867469879518	7.73493975903615	1273.51676049938	57.7443609022556	1226.37362637363	
2015/06/23 15:51:22.384	6.16867469879518	-0.216867469879518	7.72289156626506	1273.51676049938	57.7443609022556	1227.10622710623	
2015/06/23 15:51:22.392	6.1566265060241	-0.192771084337349	7.73493975903615	1272.7779524312	57.7443609022556	1226.37362637363	
2015/06/23 15:51:22.400	6.13253012048193	-0.204819277108434	7.72289156626506	1274.256426776	57.7443609022556	1227.83882783883	
2015/06/23 15:51:22.407	6.1566265060241	-0.204819277108434	7.73493975903615	1273.51676049938	57.7443609022556	1227.83882783883	
2015/06/23 15:51:22.415	6.16867469879518	-0.204819277108434	7.72289156626506	1273.51676049938	57.7443609022556	1228.57142857143	
2015/06/23 15:51:22.423	6.18072289156627	-0.204819277108434	7.73493975903615	1273.51676049938	57.7443609022556	1232.23443223443	
2015/06/23 15:51:22.431	6.19277108433735	-0.192771084337349	7.72289156626506	1273.51676049938	57.7443609022556	1234.43223443223	
2015/06/23 15:51:22.439	6.1566265060241	-0.192771084337349	7.72289156626506	1273.51676049938	57.7443609022556	1236.63003663004	
2015/06/23 15:51:22.446	6.1566265060241	-0.204819277108434	7.72289156626506	1273.51676049938	57.7443609022556	1237.36263736264	
2015/06/23 15:51:22.454	6.13253012048193	-0.204819277108434	7.73493975903615	1273.51676049938	57.7443609022556	1238.82783882784	
2015/06/23 15:51:22.462	6.14457831325301	-0.216867469879518	7.72289156626506	1274.256426776	57.7443609022556	1239.56043956044	
2015/06/23 15:51:22.470	6.12048192771084	-0.216867469879518	7.72289156626506	1273.51676049938	57.7443609022556	1239.56043956044	
2015/06/23 15:51:22.478	6.13253012048193	-0.240963855421687	7.73493975903615	1274.256426776	57.7443609022556	1240.29304029304	
2015/06/23 15:51:22.486	6.16867469879518	-0.216867469879518	7.74698795180723	1274.256426776	57.7443609022556	1239.56043956044	
2015/06/23 15:51:22.493	6.18072289156627	-0.204819277108434	7.73493975903615	1274.256426776	57.7443609022556	1238.09523809524	
2015/06/23 15:51:22.501	6.16867469879518	-0.180722891566265	7.71084337349398	1274.256426776	57.7443609022556	1238.82783882784	
2015/06/23 15:51:22.509	6.1566265060241	-0.192771084337349	7.72289156626506	1273.51676049938	57.7443609022556	1238.82783882784	
2015/06/23 15:51:22.517	6.16867469879518	-0.180722891566265	7.74698795180723	1274.256426776	57.7443609022556	1238.09523809524	
2015/06/23 15:51:22.525	6.1566265060241	-0.204819277108434	7.75903614457831	1274.256426776	57.7443609022556	1241.75824175824	
2015/06/23 15:51:22.532	6.1566265060241	-0.216867469879518	7.74698795180723	1273.51676049938	57.7443609022556	1243.95604395604	
2015/06/23 15:51:22.540	6.1566265060241	-0.216867469879518	7.74698795180723	1274.256426776	57.7443609022556	1243.22344322344	
2015/06/23 15:51:22.548	6.14457831325301	-0.216867469879518	7.72289156626506	1274.256426776	57.7443609022556	1245.42124542125	
2015/06/23 15:51:22.556	6.18072289156627	-0.204819277108434	7.71084337349398	1274.256426776	57.7443609022556	1244.68864468864	
2015/06/23 15:51:22.564	6.19277108433735	-0.192771084337349	7.72289156626506	1274.256426776	57.7443609022556	1244.68864468864	
2015/06/23 15:51:22.571	6.20481927710843	-0.192771084337349	7.72289156626506	1273.51676049938	57.7443609022556	1243.95604395604	
2015/06/23 15:51:22.579	6.18072289156627	-0.192771084337349	7.72289156626506	1274.256426776	57.7443609022556	1242.49084249084	
2015/06/23 15:51:22.587	6.14457831325301	-0.192771084337349	7.73493975903615	1274.256426776	57.7443609022556	1240.29304029304	
2015/06/23 15:51:22.595	6.10843373493976	-0.228915662650602	7.75903614457831	1273.51676049938	57.7443609022556	1238.09523809524	
2015/06/23 15:51:22.603	6.10843373493976	-0.240963855421687	7.7710843373494	1274.256426776	57.7443609022556	1235.89743589744	
2015/06/23 15:51:22.611	6.12048192771084	-0.228915662650602	7.75903614457831	1273.51676049938	57.7443609022556	1235.16483516484	
2015/06/23 15:51:22.618	6.13253012048193	-0.204819277108434	7.73493975903615	1274.256426776	57.7443609022556	1232.96703296703	
2015/06/23 15:51:22.626	6.14457831325301	-0.192771084337349	7.73493975903615	1274.256426776	57.7443609022556	1233.69963369963	
2015/06/23 15:51:22.634	6.14457831325301	-0.192771084337349	7.73493975903615	1274.256426776	57.7443609022556	1233.69963369963	
2015/06/23 15:51:22.642	6.1566265060241	-0.216867469879518	7.73493975903615	1274.256426776	57.7443609022556	1235.16483516484	
2015/06/23 15:51:22.650	6.1566265060241	-0.228915662650602	7.74698795180723	1274.256426776	57.7443609022556	1235.16483516484	
2015/06/23 15:51:22.657	6.13253012048193	-0.204819277108434	7.74698795180723	1274.256426776	57.7443609022556	1232.23443223443	
2015/06/23 15:51:22.665	6.09638554216868	-0.204819277108434	7.74698795180723	1274.256426776	57.7443609022556	1230.76923076923	
2015/06/23 15:51:22.673	6.13253012048193	-0.216867469879518	7.75903614457831	1274.256426776	57.7443609022556	1232.23443223443	
2015/06/23 15:51:22.681	6.16867469879518	-0.204819277108434	7.73493975903615	1274.99695275728	57.7443609022556	1235.89743589744	
2015/06/23 15:51:22.689	6.19277108433735	-0.192771084337349	7.74698795180723	1274.256426776	57.7443609022556	1242.49084249084	
2015/06/23 15:51:22.696	6.21686746987952	-0.192771084337349	7.73493975903615	1274.256426776	57.7443609022556	1252.74725274725	
2015/06/23 15:51:22.704	6.19277108433735	-0.204819277108434	7.72289156626506	1274.99695275728	57.7443609022556	1268.86446886447	
2015/06/23 15:51:22.712	6.16867469879518	-0.216867469879518	7.73493975903615	1274.256426776	57.7443609022556	1290.84249084249	
2015/06/23 15:51:22.720	6.1566265060241	-0.216867469879518	7.74698795180723	1274.256426776	57.7443609022556	1320.87912087912	
2015/06/23 15:51:22.728	6.12048192771084	-0.216867469879518	7.75903614457831	1274.256426776	57.7443609022556	1360.43956043956	
2015/06/23 15:51:22.736	6.10843373493976	-0.216867469879518	7.73493975903615	1274.256426776	57.7443609022556	1405.86080586081	
2015/06/23 15:51:22.743	6.10843373493976	-0.216867469879518	7.75903614457831	1274.99695275728	57.7443609022556	1455.67765567766	
2015/06/23 15:51:22.751	6.13253012048193	-0.216867469879518	7.75903614457831	1274.256426776	57.7443609022556	1509.89010989011	
2015/06/23 15:51:22.759	6.1566265060241	-0.228915662650602	7.74698795180723	1274.256426776	57.7443609022556	1565.56776556777	
2015/06/23 15:51:22.767	6.1566265060241	-0.204819277108434	7.72289156626506	1274.256426776	57.7443609022556	1623.44322344322	
2015/06/23 15:51:22.775	6.13253012048193	-0.216867469879518	7.72289156626506	1274.256426776	57.7443609022556	1678.38827838828	
2015/06/23 15:51:22.782	6.13253012048193	-0.204819277108434	7.74698795180723	1274.256426776	57.7443609022556	1730.40293040293	
2015/06/23 15:51:22.790	6.18072289156627	-0.204819277108434	7.75903614457831	1274.256426776	57.7443609022556	1776.55677655678	
2015/06/23 15:51:22.798	6.18072289156627	-0.216867469879518	7.74698795180723	1274.256426776	57.7443609022556	1818.31501831502	
2015/06/23 15:51:22.806	6.14457831325301	-0.192771084337349	7.74698795180723	1274.256426776	57.7443609022556	1852.01465201465	
2015/06/23 15:51:22.814	6.13253012048193	-0.192771084337349	7.74698795180723	1274.99695275728	57.7443609022556	1875.45787545788	
2015/06/23 15:51:22.821	6.12048192771084	-0.216867469879518	7.74698795180723	1274.99695275728	57.7443609022556	1891.57509157509	
2015/06/23 15:51:22.829	6.1566265060241	-0.228915662650602	7.74698795180723	1274.99695275728	57.7443609022556	1902.5641025641	
2015/06/23 15:51:22.837	6.12048192771084	-0.228915662650602	7.73493975903615	1274.256426776	57.7443609022556	1906.22710622711	
2015/06/23 15:51:22.845	6.13253012048193	-0.228915662650602	7.73493975903615	1274.256426776	57.7443609022556	1906.95970695971	
2015/06/23 15:51:22.853	6.10843373493976	-0.216867469879518	7.7710843373494	1274.256426776	60.4724409448819	1901.0989010989	
2015/06/23 15:51:22.861	6.14457831325301	-0.216867469879518	7.75903614457831	1274.99695275728	60.4724409448819	1892.30769230769	
2015/06/23 15:51:22.868	6.20481927710843	-0.204819277108434	7.7710843373494	1274.99695275728	60.4724409448819	1879.85347985348	
2015/06/23 15:51:22.876	6.20481927710843	-0.192771084337349	7.75903614457831	1274.256426776	60.4724409448819	1862.27106227106	
2015/06/23 15:51:22.884	6.1566265060241	-0.192771084337349	7.74698795180723	1274.256426776	60.4724409448819	1841.75824175824	
2015/06/23 15:51:22.892	6.12048192771084	-0.216867469879518	7.74698795180723	1274.256426776	60.4724409448819	1821.24542124542	
2015/06/23 15:51:22.900	6.09638554216868	-0.204819277108434	7.74698795180723	1274.99695275728	60.4724409448819	1798.5347985348	
2015/06/23 15:51:22.907	6.09638554216868	-0.240963855421687	7.73493975903615	1274.256426776	60.4724409448819	1777.28937728938	
2015/06/23 15:51:22.915	6.08433734939759	-0.240963855421687	7.73493975903615	1274.256426776	60.4724409448819	1756.77655677656	
2015/06/23 15:51:22.923	6.09638554216868	-0.240963855421687	7.74698795180723	1274.256426776	60.4724409448819	1734.79853479854	
2015/06/23 15:51:22.931	6.14457831325301	-0.228915662650602	7.75903614457831	1274.99695275728	60.4724409448819	1712.08791208791	
2015/06/23 15:51:22.939	6.16867469879518	-0.204819277108434	7.74698795180723	1274.99695275728	60.4724409448819	1694.50549450549	
2015/06/23 15:51:22.946	6.20481927710843	-0.216867469879518	7.74698795180723	1274.256426776	60.4724409448819	1678.38827838828	
2015/06/23 15:51:22.954	6.19277108433735	-0.168674698795181	7.73493975903615	1274.99695275728	60.4724409448819	1667.39926739927	
2015/06/23 15:51:22.962	6.1566265060241	-0.180722891566265	7.73493975903615	1274.99695275728	60.4724409448819	1660.80586080586	
2015/06/23 15:51:22.970	6.14457831325301	-0.180722891566265	7.74698795180723	1274.256426776	60.4724409448819	1657.14285714286	
2015/06/23 15:51:22.978	6.13253012048193	-0.204819277108434	7.74698795180723	1274.256426776	60.4724409448819	1655.67765567766	
2015/06/23 15:51:22.986	6.14457831325301	-0.204819277108434	7.75903614457831	1274.99695275728	60.4724409448819	1657.14285714286	
2015/06/23 15:51:22.993	6.13253012048193	-0.228915662650602	7.74698795180723	1274.99695275728	60.4724409448819	1658.60805860806	
2015/06/23 15:51:23.001	6.09638554216868	-0.228915662650602	7.74698795180723	1274.99695275728	60.4724409448819	1660.07326007326	
2015/06/23 15:51:23.009	6.10843373493976	-0.228915662650602	7.73493975903615	1274.256426776	60.4724409448819	1660.07326007326	
2015/06/23 15:51:23.017	6.13253012048193	-0.228915662650602	7.75903614457831	1274.99695275728	60.4724409448819	1660.80586080586	
